,free_cash_flow_equity,gross_margin,market_cap,net_income_margin,pe,px,roa,Price Momentum 12M,Price Momentum 12M-1M,Price to 52W High,Price to 52W Low,Return 1D,Return 1M,Return 1Q,Max Daily Return over 1M,Realized Volatility 1M,Realized Volatility 3M
5/3/1999,585.342,55.4101,41247.0743,11.8046,15.4765,4.2129,7.5664,-0.08343486206596462,-0.1934122356626926,0.9057273079072968,1.4809125421822271,0.0,0.1363489237740736,0.1579309017947943,0.0631709540206602,0.028467828904898705,0.024190638941230153
5/4/1999,585.342,55.4101,41247.0743,11.8046,15.4765,4.2684,7.5664,-0.07688315058716666,-0.19520318345984988,0.9176591993808316,1.5004218222722159,0.013173823257138562,0.14701851503506846,0.1687522247474056,0.0631709540206602,0.028496790833303497,0.024226845189122496
5/5/1999,585.342,55.4101,41247.0743,11.8046,15.4765,4.1713,7.5664,-0.1032162359719655,-0.20888334694930555,0.9021172603213736,1.4662893700787398,-0.022748570893074693,0.13356704168704803,0.11267305076155654,0.0631709540206602,0.028973195695832,0.024243089487700462
5/6/1999,585.342,55.4101,41247.0743,11.8046,15.4765,4.0743,7.5664,-0.11091956531226821,-0.20909527342556633,0.8811392979951989,1.4321920697412822,-0.02325414139476889,0.12413089063017324,0.08278409694908051,0.0631709540206602,0.029329582699931765,0.024449255801513702
5/7/1999,585.342,55.4101,41247.0743,11.8046,15.4765,4.1575,7.5664,-0.10086723328791714,-0.2221285062393218,0.9127132225417662,1.4614384139482564,0.020420685761971313,0.15588856761565828,0.10085791452629334,0.0631709540206602,0.029317275230593232,0.02456344434628437
5/10/1999,585.342,55.4101,41247.0743,11.8046,15.4765,4.2822,7.5664,-0.05991086913569421,-0.20432043204320438,0.9400891308643058,1.5052727784026994,0.02999398677089582,0.18149210903873736,0.15504126881372393,0.0631709540206602,0.02973210850933739,0.024678370183333444
5/11/1999,585.342,55.4101,41247.0743,11.8046,15.4765,4.2961,7.5664,-0.05685934447103258,-0.17698843055037217,0.9431406555289674,1.5101588863892013,0.0032459950492738088,0.14596281575928938,0.1674819283656721,0.0631709540206602,0.029143137040671164,0.024645005173124415
5/12/1999,585.342,55.4101,41247.0743,11.8046,15.4765,4.2961,7.5664,-0.05685934447103258,-0.1542227393471055,0.9605589714924538,1.5101588863892013,0.0,0.11511706380106945,0.1417295630913149,0.0631709540206602,0.02878116635947553,0.024516254945256912
5/13/1999,585.342,55.4101,41247.0743,11.8046,15.4765,4.3376,7.5664,-0.015010105138860363,-0.14088153143947124,0.9698378982671884,1.5247469066366703,0.009659924117222607,0.14651230407316373,0.1527585840331669,0.0631709540206602,0.028276521419728178,0.024531208648964336
5/14/1999,585.342,55.4101,41247.0743,11.8046,15.4765,4.2545,7.5664,-0.018547140649149974,-0.0888832499019585,0.9512576858580213,1.4955357142857142,-0.019158059756547385,0.07719769090540818,0.1649461953396676,0.0631709540206602,0.027485008749557338,0.02434888443539777
5/17/1999,585.342,55.4101,41247.0743,11.8046,15.4765,4.2406,7.5664,-0.03703703703703709,-0.04646093058110223,0.9481498043599775,1.4906496062992123,-0.003267128922317619,0.009883070181705644,0.16554434763488435,0.053578331572301074,0.023913486554947197,0.024346769069509954
5/18/1999,585.342,55.4101,41247.0743,11.8046,15.4765,4.1991,7.5664,-0.06112912241475699,-0.05804359977641138,0.938870877585243,1.4760615860517432,-0.009786350988067793,-0.0032756533504239016,0.1585641761394989,0.053578331572301074,0.024013819371416844,0.024384207305368208
5/19/1999,585.342,55.4101,41247.0743,11.8046,15.4765,4.2961,7.5664,-0.015220630372492772,-0.07241260744985678,0.9605589714924538,1.5101588863892013,0.023100188135553035,0.061656699451391406,0.1853272265754331,0.053578331572301074,0.022701954737926855,0.024517350891862844
5/20/1999,585.342,55.4101,41247.0743,11.8046,15.4765,4.2268,7.5664,-0.03717539863325736,-0.05296127562642372,0.9450642817216321,1.4857986501687288,-0.016130909429482587,0.016668671076367936,0.16175136739686113,0.053578331572301074,0.02235632507004428,0.02463508944138126
5/21/1999,585.342,55.4101,41247.0743,11.8046,15.4765,4.2822,7.5664,-0.021479822677208604,-0.05630455646451249,0.9574510899944102,1.5052727784026994,0.013106842055455648,0.03690251343890716,0.19055827402135228,0.053578331572301074,0.022432583033801804,0.024602595345455856
5/24/1999,585.342,55.4101,41247.0743,11.8046,15.4765,4.1575,7.5664,-0.04997486403729268,-0.0816461770485809,0.9295695919508105,1.4614384139482564,-0.029120545513988128,0.034487048694916256,0.15147066969478762,0.053578331572301074,0.0225831473558846,0.024934143018892015
5/25/1999,585.342,55.4101,41247.0743,11.8046,15.4765,4.1436,7.5664,-0.05315113568849683,-0.11331749005986924,0.9264617104527669,1.4565523059617547,-0.003343355381839941,0.06785557817694521,0.12183235867446407,0.053578331572301074,0.02104747788286616,0.02480630300823544
5/26/1999,585.342,55.4101,41247.0743,11.8046,15.4765,4.1991,7.5664,-0.018878945769761013,-0.04479076613939581,0.938870877585243,1.4760615860517432,0.013394150014480077,0.027126852893694098,0.14977684072177633,0.030502421603639807,0.01783289894088544,0.02478638597724287
5/27/1999,585.342,55.4101,41247.0743,11.8046,15.4765,4.1852,7.5664,-0.0061504120063641254,0.0004274417610601322,0.9357629960871995,1.4711754780652417,-0.0033102331451976275,-0.006575043319328788,0.18179251143615516,0.02999398677089582,0.016557237897429307,0.024440599684245726
5/28/1999,585.342,55.4101,41247.0743,11.8046,15.4765,4.2268,7.5664,0.03067544501341124,0.0408193123628382,0.9450642817216321,1.4857986501687288,0.009939787823759927,-0.009746040670977396,0.17971475620307564,0.02999398677089582,0.016441422835740557,0.02443132838820355
5/31/1999,585.342,55.4101,41247.0743,11.8046,15.4765,4.2268,7.5664,0.041160676897307624,0.03773677857969804,0.9450642817216321,1.4857986501687288,0.0,0.0032993899689048867,0.19353927825153905,0.02999398677089582,0.016183427559770504,0.024363932067422468
6/1/1999,585.342,55.4101,41247.0743,11.8046,15.4765,4.1713,7.5664,-0.002940051630175078,0.007003537623099687,0.9326551145891558,1.4662893700787398,-0.013130500615122664,-0.009874433288233897,0.13786518999427133,0.02999398677089582,0.01644637468340819,0.024097362928899867
6/2/1999,585.342,55.4101,41247.0743,11.8046,15.4765,4.3099,7.5664,0.072541309974119,0.062213816444355974,0.9636444941307992,1.515009842519685,0.03322705151871119,0.0097226126885952,0.16251281221341096,0.03322705151871119,0.017797164533184362,0.024385436832450844
6/3/1999,585.342,55.4101,41247.0743,11.8046,15.4765,4.3238,7.5664,0.07600039816842541,0.038049970137367994,0.966752375628843,1.5198959505061866,0.0032251328337085106,0.0365593460072402,0.14489223110734528,0.03322705151871119,0.016976160814039284,0.024299660558645884
6/4/1999,585.342,55.4101,41247.0743,11.8046,15.4765,4.4485,7.5664,0.081123775730916,-0.00981845578049434,0.9946338736724427,1.5637303149606299,0.028840371895092254,0.0918439977419434,0.23206669251647938,0.03322705151871119,0.016930768649853406,0.023783289509938767
6/7/1999,585.342,55.4101,41247.0743,11.8046,15.4765,4.5455,7.5664,0.1196640145823582,0.024090450033253497,1.0,1.5978276152980875,0.021805102843655,0.09332531569452795,0.18193873836392926,0.03322705151871119,0.01699911667368763,0.022570213344708
6/8/1999,585.342,55.4101,41247.0743,11.8046,15.4765,4.6425,7.5664,0.14745792036382532,0.058404804864183424,1.0,1.6319249156355455,0.021339786602134092,0.08413899397505964,0.2071610588174111,0.03322705151871119,0.016443308151528082,0.02268573342540143
6/9/1999,585.342,55.4101,41247.0743,11.8046,15.4765,4.6148,7.5664,0.08875572122870756,0.013565800028311203,0.9940333871836294,1.62218785151856,-0.0059666128163705645,0.07418356183515273,0.2086639951808491,0.03322705151871119,0.01658621822750982,0.022677085141629087
6/10/1999,585.342,55.4101,41247.0743,11.8046,15.4765,4.6148,7.5664,0.05120728929384977,-0.021389521640091003,0.9940333871836294,1.62218785151856,0.0,0.07418356183515273,0.2174968341072181,0.03322705151871119,0.01658621822750982,0.022641197954698312
6/11/1999,585.342,55.4101,41247.0743,11.8046,15.4765,4.6425,7.5664,0.044431946006749046,-0.024161979752530982,1.0,1.6319249156355455,0.006002426974083486,0.07029232755440806,0.2071610588174111,0.03322705151871119,0.01653791892436666,0.022598216936684394
6/14/1999,585.342,55.4101,41247.0743,11.8046,15.4765,4.6287,7.5664,0.03492453884851865,-0.048742314141978715,0.9970274636510501,1.6270739595050618,-0.0029725363489498946,0.08795393113174277,0.16583129738306934,0.03322705151871119,0.015796042419961468,0.02230013388278094
6/15/1999,585.342,55.4101,41247.0743,11.8046,15.4765,4.6425,7.5664,0.0411994258544901,-0.048936933704135765,1.0,1.6319249156355455,0.0029813986648519197,0.09477432438805833,0.21150835073068897,0.03322705151871119,0.01570813346599231,0.02177685333001315
6/16/1999,585.342,55.4101,41247.0743,11.8046,15.4765,4.5732,7.5664,0.038490360378772515,-0.04646093058110223,0.9850726978998384,1.6075646794150729,-0.014927302100161577,0.08909051939701373,0.17644637666246488,0.03322705151871119,0.015978634057171006,0.021848426895506076
6/17/1999,585.342,55.4101,41247.0743,11.8046,15.4765,4.7395,7.5664,0.06295415806943572,-0.03648963846774922,1.0,1.6660222159730032,0.036364033936849394,0.10320988803798792,0.2413242188523086,0.036364033936849394,0.016993295497003905,0.02208844386003261
6/18/1999,585.342,55.4101,41247.0743,11.8046,15.4765,4.7257,7.5664,0.06643648590707008,-0.04614898562498593,0.9970883004536344,1.6611712598425195,-0.0029116995463656092,0.11803255417810155,0.24219961622374675,0.036364033936849394,0.016413147249581705,0.02208488055223382
6/21/1999,585.342,55.4101,41247.0743,11.8046,15.4765,4.6841,7.5664,0.05379077615298078,-0.03662542182227235,0.9883110032703872,1.6465480877390324,-0.008802928666652554,0.09385362664051189,0.2494598415535223,0.036364033936849394,0.016597714490947314,0.02201994383201651
6/22/1999,585.342,55.4101,41247.0743,11.8046,15.4765,4.6702,7.5664,0.05066366704161984,-0.06467941507311603,0.9853782044519466,1.641661979752531,-0.0029674857496636564,0.123319302465424,0.2787711179869117,0.036364033936849394,0.014844499213297314,0.021710535559616984
6/23/1999,585.342,55.4101,41247.0743,11.8046,15.4765,4.601,7.5664,0.04806378132118461,-0.056127562642368956,0.970777508175968,1.6173368953880765,-0.014817352575906884,0.11038710300222032,0.2363958831591111,0.036364033936849394,0.015393335092280386,0.021755833988173382
6/24/1999,585.342,55.4101,41247.0743,11.8046,15.4765,4.5317,7.5664,0.05545463014719587,-0.022009502515371704,0.9561557126279144,1.5929766591676038,-0.015061943055857507,0.07920744921530809,0.18259394572025056,0.036364033936849394,0.01587265413616228,0.021619420730654735
6/25/1999,585.342,55.4101,41247.0743,11.8046,15.4765,4.5178,7.5664,0.042192438118526354,-0.03453366859673812,0.9532229138094737,1.5880905511811023,-0.0030672815941036324,0.07947051514861903,0.23238495321749086,0.036364033936849394,0.015867334602682654,0.020810384476626916
6/28/1999,585.342,55.4101,41247.0743,11.8046,15.4765,4.4347,7.5664,0.032862865660518104,-0.015558039873299734,0.9356894187150545,1.5588793588301462,-0.018393908539554693,0.04918614554745915,0.20514701885972064,0.036364033936849394,0.016507876664791983,0.020992850314377285
6/29/1999,585.342,55.4101,41247.0743,11.8046,15.4765,4.4762,7.5664,0.0770452358036573,0.017035611164581077,0.9444456166262266,1.5734673790776152,0.009358017453266365,0.05900444780921754,0.2073690456923991,0.036364033936849394,0.01656556330716439,0.021000318351150116
6/30/1999,585.342,55.4101,41247.0743,11.8046,15.4765,4.4901,7.5664,0.13503880280087954,0.05445031471978545,0.9473784154446673,1.578353487064117,0.003105312541888061,0.07642701316136469,0.21111830393267517,0.036364033936849394,0.016155603913579914,0.020996305345083444
7/1/1999,585.342,55.4101,41247.0743,11.8046,15.4765,4.5039,7.5664,0.1228870605833956,0.07452006980802794,0.9502901149910329,1.5832044431946004,0.0030734282087259146,0.04501264530499549,0.21030285115416647,0.036364033936849394,0.01466538444106673,0.020996223856458364
7/2/1999,585.342,55.4101,41247.0743,11.8046,15.4765,4.5732,7.5664,0.15604540054096416,0.0930003286230694,0.9649119105390864,1.6075646794150729,0.015386664890428392,0.05768074379018451,0.2427849339638024,0.036364033936849394,0.014945329290508189,0.020968840587848248
7/5/1999,585.342,55.4101,41247.0743,11.8046,15.4765,4.5732,7.5664,0.15604540054096416,0.12452286458201667,0.9649119105390864,1.6075646794150729,0.0,0.028031920872203964,0.26178126034654015,0.036364033936849394,0.013704379703140403,0.02083737041551048
7/6/1999,585.342,55.4101,41247.0743,11.8046,15.4765,4.5039,7.5664,0.1385272630754062,0.14904320129426907,0.9502901149910329,1.5832044431946004,-0.015153503017580672,-0.009151908480915183,0.252196396797153,0.036364033936849394,0.01332151165933826,0.020926071531052515
7/7/1999,585.342,55.4101,41247.0743,11.8046,15.4765,4.5178,7.5664,0.17479717079259416,0.20722384023299356,0.9532229138094737,1.5880905511811023,0.0030862141699417034,-0.026860527732902484,0.24649597174704785,0.036364033936849394,0.0123988027606099,0.02092031929762447
7/8/1999,585.342,55.4101,41247.0743,11.8046,15.4765,4.5317,7.5664,0.2043105051954608,0.22639453612904936,0.9561557126279144,1.5929766591676038,0.003076718756916952,-0.018007280922250124,0.20880791698898338,0.036364033936849394,0.012382849661789912,0.020549453989825578
7/9/1999,585.342,55.4101,41247.0743,11.8046,15.4765,4.4347,7.5664,0.20051434759068765,0.24926908500270706,0.9356894187150545,1.5588793588301462,-0.021404770836551346,-0.03902661003727126,0.15109276851996079,0.036364033936849394,0.0131702718324749,0.020537997619849518
7/12/1999,585.342,55.4101,41247.0743,11.8046,15.4765,4.3931,7.5664,0.18043314703353386,0.2474473344797936,0.9269121215318071,1.5442561867266589,-0.00938056689291289,-0.05372105546580519,0.1611820368461394,0.036364033936849394,0.013141687100426935,0.020428240201633096
7/13/1999,585.342,55.4101,41247.0743,11.8046,15.4765,4.372,7.5664,0.1969228242122265,0.2671996057710735,0.9224601751239583,1.5368391451068615,-0.004802986501559192,-0.05545833603387573,0.10694753899129017,0.036364033936849394,0.013150736987926839,0.019747599025879307
7/14/1999,585.342,55.4101,41247.0743,11.8046,15.4765,4.372,7.5664,0.20603569556701884,0.2806543267771924,0.9224601751239583,1.5368391451068615,0.0,-0.05826602046311258,0.04117548998594933,0.036364033936849394,0.013103119851631435,0.01811790633288167
7/15/1999,585.342,55.4101,41247.0743,11.8046,15.4765,4.3581,7.5664,0.2302676151761518,0.2909891598915988,0.9195273763055176,1.53195303712036,-0.003179322964318332,-0.04703489897664648,0.03446557003489281,0.036364033936849394,0.0128056827668162,0.018121915597137096
7/16/1999,585.342,55.4101,41247.0743,11.8046,15.4765,4.372,7.5664,0.22940217085653214,0.33274281536471495,0.9224601751239583,1.5368391451068615,0.003189463298226114,-0.07753982487604172,0.08041318637868833,0.015386664890428392,0.009402759470416716,0.017378375119203912
7/19/1999,585.342,55.4101,41247.0743,11.8046,15.4765,4.3859,7.5664,0.22857783131180143,0.32376257038012257,0.9253929739423992,1.5417252530933634,0.003179322964318443,-0.07190469136847444,0.054936861094407874,0.015386664890428392,0.009524484968511285,0.017058193919832886
7/20/1999,585.342,55.4101,41247.0743,11.8046,15.4765,4.5385,7.5664,0.29634390174235925,0.33793201942302176,0.9575904631290221,1.5953669853768278,0.03479331494106108,-0.031083879507269208,0.09896363020000964,0.03479331494106108,0.012574550114891923,0.017550654746340277
7/21/1999,585.342,55.4101,41247.0743,11.8046,15.4765,4.4414,7.5664,0.258686164484498,0.32352774471461787,0.937103069944087,1.561234533183352,-0.021394733942932675,-0.048991477881033085,0.10512826892930893,0.03479331494106108,0.01330888771479741,0.017420657231052183
7/22/1999,585.342,55.4101,41247.0743,11.8046,15.4765,4.4969,7.5664,0.305000145099974,0.33520995966220735,0.948813165945775,1.5807438132733407,0.012496059800963799,-0.022625516192132156,0.15890523928562228,0.03479331494106108,0.013359500260741362,0.016840969061738598
7/23/1999,585.342,55.4101,41247.0743,11.8046,15.4765,4.7467,7.5664,0.39987613542526823,0.3364692697888403,1.0,1.668553149606299,0.05554937846071728,0.0474435642253459,0.1610733330071914,0.05554937846071728,0.017794420198689084,0.016938970586741996
7/26/1999,585.342,55.4101,41247.0743,11.8046,15.4765,4.5247,7.5664,0.33440486020998006,0.3323699421965318,0.9532306655149895,1.590516029246344,-0.04676933448501053,0.001527292044800621,0.07401077642479059,0.05554937846071728,0.02076768890355374,0.017661777962922783
7/27/1999,585.342,55.4101,41247.0743,11.8046,15.4765,4.4275,7.5664,0.29002651437895177,0.2921243553509514,0.9327532812269578,1.5563484251968505,-0.021482087210201728,-0.001623559654542639,0.03727391997001228,0.05554937846071728,0.02091690501300403,0.017824516688964207
7/28/1999,585.342,55.4101,41247.0743,11.8046,15.4765,4.4691,7.5664,0.3509567425410356,0.35310298963151054,0.9415172646259508,1.5709715973003373,0.009395821569734508,-0.0015861668379429927,0.06081321654917038,0.05554937846071728,0.02091774054950589,0.017769349098145298
7/29/1999,585.342,55.4101,41247.0743,11.8046,15.4765,4.7884,7.5664,0.47831187675588893,0.3862183939983328,1.0,1.6832114735658041,0.07144615246917718,0.06643504599006711,0.13660423936006083,0.07144615246917718,0.026082131146435608,0.01985591506857202
7/30/1999,585.342,55.4101,41247.0743,11.8046,15.4765,4.7467,7.5664,0.4348719808953778,0.36147637616758854,0.9912914543480076,1.668553149606299,-0.008708545651992416,0.053908834565598696,0.11205603973385814,0.07144615246917718,0.026215568411347475,0.01985271330555095
8/2/1999,585.342,55.4101,41247.0743,11.8046,15.4765,4.8022,7.5664,0.4888695975692938,0.41787065170211446,1.0,1.6880624296962878,0.01169233362125266,0.05007434619085105,0.15124781243257512,0.07144615246917718,0.0261393421898154,0.019636634569485337
8/3/1999,585.342,55.4101,41247.0743,11.8046,15.4765,4.6912,7.5664,0.4180949789909616,0.382424956923914,0.9768855941027029,1.6490438695163103,-0.023114405897297075,0.025802501530656885,0.1514125125788479,0.07144615246917718,0.026736303245407766,0.01963369485122264
8/4/1999,585.342,55.4101,41247.0743,11.8046,15.4765,4.8855,7.5664,0.5018906206769347,0.38457991330812513,1.0,1.7173439257592802,0.04141797407912695,0.08472657030573516,0.17510523150932067,0.07144615246917718,0.02779823820788864,0.020116345351156417
8/5/1999,585.342,55.4101,41247.0743,11.8046,15.4765,5.1770000000000005,7.5664,0.5520446096654277,0.3544189950833434,1.0,1.8198115860517436,0.059666359635656585,0.14591172694674404,0.20895801223670096,0.07144615246917718,0.030309156806841046,0.021088133767757082
8/6/1999,585.342,55.4101,41247.0743,11.8046,15.4765,5.5378,7.5664,0.6070692707275311,0.3150991032821613,1.0,1.9466394825646791,0.0696928723198762,0.2220138138005605,0.2890295849724167,0.07144615246917718,0.033230292443955,0.02268968146975032
8/9/1999,585.342,55.4101,41247.0743,11.8046,15.4765,5.4962,7.5664,0.5698943159097398,0.2666952299343044,0.9924879916212215,1.9320163104611923,-0.007512008378778523,0.23936230184679896,0.27934638392961064,0.07144615246917718,0.03270569283100997,0.022732270918515356
8/10/1999,585.342,55.4101,41247.0743,11.8046,15.4765,4.9688,7.5664,0.44194550044980985,0.2748773905220696,0.8972516161652642,1.746625421822272,-0.0959572067974237,0.13104641369420245,0.14551825894503878,0.07144615246917718,0.04001312950901365,0.025982813847434783
8/11/1999,585.342,55.4101,41247.0743,11.8046,15.4765,5.1492,7.5664,0.5247853124074624,0.2946402132069885,0.9298277294232368,1.8100393700787403,0.03630655289003393,0.17776761207685277,0.21029498178399342,0.07144615246917718,0.04042837921340593,0.026176381882076702
8/12/1999,585.342,55.4101,41247.0743,11.8046,15.4765,5.2186,7.5664,0.577521840331308,0.32160454641637193,0.9423597818628338,1.8344347581552305,0.013477821797560852,0.1936413540713633,0.2306277413573552,0.07144615246917718,0.040391905998183174,0.026192895406894047
8/13/1999,585.342,55.4101,41247.0743,11.8046,15.4765,5.2047,7.5664,0.6275877165551316,0.3628432047032335,0.9398497598324245,1.8295486501687288,-0.002663549611006899,0.1942589660631926,0.23947988854754598,0.07144615246917718,0.04038412837057814,0.02614935504188945
8/16/1999,585.342,55.4101,41247.0743,11.8046,15.4765,5.1492,7.5664,0.6603359881340083,0.40973140296004895,0.9298277294232368,1.8100393700787403,-0.010663438814917159,0.17776761207685277,0.19857545215427952,0.07144615246917718,0.04060100302989184,0.02609231314528187
8/17/1999,585.342,55.4101,41247.0743,11.8046,15.4765,5.1492,7.5664,0.7375400708621564,0.47997300489286343,0.9298277294232368,1.8100393700787403,0.0,0.1740349757176407,0.21822655436737026,0.07144615246917718,0.04062819166160418,0.025978312375932667
8/18/1999,585.342,55.4101,41247.0743,11.8046,15.4765,5.1492,7.5664,0.7960237181723058,0.5830136030694106,0.9298277294232368,1.8100393700787403,0.0,0.13455987661121527,0.20246602213815357,0.07144615246917718,0.04020790455847975,0.02595236465250256
8/19/1999,585.342,55.4101,41247.0743,11.8046,15.4765,5.2464,7.5664,0.7621334766399088,0.4917542740066503,0.9473798259236521,1.8442069741282339,0.018876718713586538,0.18124915567163513,0.26191220685508143,0.07144615246917718,0.03975355094365855,0.02568957124570865
8/20/1999,585.342,55.4101,41247.0743,11.8046,15.4765,5.2603,7.5664,0.8001779542110126,0.5389274836590123,0.9498898479540612,1.8490930821147356,0.0026494358035986654,0.16976139118059108,0.26949995173279273,0.07144615246917718,0.039764870288555305,0.025672940173374955
8/23/1999,585.342,55.4101,41247.0743,11.8046,15.4765,5.2464,7.5664,0.7954211012627908,0.6244139488723863,0.9473798259236521,1.8442069741282339,-0.0026424348421192345,0.10527313712684627,0.24941058798313942,0.07144615246917718,0.038304922745783974,0.025658994778198135
8/24/1999,585.342,55.4101,41247.0743,11.8046,15.4765,5.2325,7.5664,0.6947368421052631,0.4654898785425101,0.9448698038932428,1.8393208661417322,-0.0026494358035987764,0.1564302605697614,0.25023893720730195,0.07144615246917718,0.03646136402011575,0.025656149374549363
8/25/1999,585.342,55.4101,41247.0743,11.8046,15.4765,5.2325,7.5664,0.6947368421052631,0.4340080971659921,0.9448698038932428,1.8393208661417322,0.0,0.18181818181818166,0.23793413456988732,0.07144615246917718,0.03590222657674363,0.025648815448141238
8/26/1999,585.342,55.4101,41247.0743,11.8046,15.4765,5.1492,7.5664,0.6456901786570364,0.42832944485282387,0.9298277294232368,1.8100393700787403,-0.01591973244147149,0.15217829093106006,0.21822655436737026,0.07144615246917718,0.03629719762441805,0.02576419314587457
8/27/1999,585.342,55.4101,41247.0743,11.8046,15.4765,5.1492,7.5664,0.6313521733620582,0.517044734507667,0.9298277294232368,1.8100393700787403,0.0,0.07534875950213027,0.2344353079375736,0.0696928723198762,0.03321104985729407,0.02568075401542861
8/30/1999,585.342,55.4101,41247.0743,11.8046,15.4765,5.1770000000000005,7.5664,0.6330199987382501,0.4972872373982713,0.9348477734840551,1.8198115860517436,0.005398896916025908,0.09065245328333393,0.2011879625977402,0.0696928723198762,0.033083619358519785,0.02540203440672154
8/31/1999,585.342,55.4101,41247.0743,11.8046,15.4765,5.3019,7.5664,0.5636133065943139,0.41624395422909055,0.9574018563328398,1.8637162542182226,0.02412594166505677,0.10405647411603014,0.22621305333271646,0.0696928723198762,0.03332595980011607,0.02553807103295957
9/1/1999,585.342,55.4101,41247.0743,11.8046,15.4765,5.3435,7.5664,0.5444980778680231,0.35595571870393394,0.9649138647116183,1.8783394263217095,0.007846243799392694,0.13904757844474758,0.20119141283578723,0.0696928723198762,0.03268657090716876,0.025339115141863308
9/2/1999,585.342,55.4101,41247.0743,11.8046,15.4765,5.1909,7.5664,0.45407434381915457,0.3685257290120172,0.9373577955144643,1.824697694038245,-0.028558061195845363,0.06251151366287977,0.14198658013419885,0.0696928723198762,0.03254063839119833,0.025537315022955132
9/3/1999,585.342,55.4101,41247.0743,11.8046,15.4765,5.2047,7.5664,0.43029486932864325,0.4226826788315152,0.9398497598324245,1.8295486501687288,0.0026584985262669836,0.005350589144291984,0.1210985460420031,0.0696928723198762,0.029881565922408426,0.025422409628685114
9/6/1999,585.342,55.4101,41247.0743,11.8046,15.4765,5.2047,7.5664,0.43573970373231075,0.5276268240876112,0.9398497598324245,1.8295486501687288,0.0,-0.06015024016757553,0.12782785819537135,0.03630655289003393,0.025363159447886145,0.025402851081002716
9/7/1999,585.342,55.4101,41247.0743,11.8046,15.4765,5.3158,7.5664,0.46082607381351526,0.5104014949572673,0.959911878363249,1.8686023622047243,0.021346091033104697,-0.03282267748626322,0.15190257432608134,0.03630655289003393,0.02586227731437894,0.02551475557448586
9/8/1999,585.342,55.4101,41247.0743,11.8046,15.4765,5.3297,7.5664,0.4427991337303736,0.34510016242555497,0.9624219003936582,1.873488470191226,0.0026148463072348527,0.07263323136370947,0.14802369413031768,0.03630655289003393,0.014073106003086961,0.02551096946033705
9/9/1999,585.342,55.4101,41247.0743,11.8046,15.4765,5.6072,7.5664,0.5467711235552122,0.4204297812474138,1.0,1.9710348706411696,0.052066720453308735,0.08894585566689961,0.21139844880852054,0.052066720453308735,0.016176556464138406,0.02625172609759327
9/10/1999,585.342,55.4101,41247.0743,11.8046,15.4765,5.4962,7.5664,0.37974143341282796,0.3100539726371283,0.9802040233984877,1.9320163104611923,-0.019795976601512333,0.05319434331046624,0.18388799138395262,0.052066720453308735,0.01683728182974038,0.026413757198889855
9/13/1999,585.342,55.4101,41247.0743,11.8046,15.4765,5.4268,7.5664,0.4061253044514692,0.3485774990931232,0.9678270794692538,1.9076209223847018,-0.01262690586223203,0.04267296866293924,0.18665267208956537,0.052066720453308735,0.01713095728655906,0.026390117869661917
9/14/1999,585.342,55.4101,41247.0743,11.8046,15.4765,5.2325,7.5664,0.2653865686440471,0.24524195303620222,0.93317520331003,1.8393208661417322,-0.03580378860470257,0.016177270255573584,0.10401941133030923,0.052066720453308735,0.018860793960546192,0.026487397502308583
9/15/1999,585.342,55.4101,41247.0743,11.8046,15.4765,5.0937,7.5664,0.28762102176495863,0.3016506989559897,0.9084213154515624,1.7905300899887513,-0.026526516961299484,-0.010778373339548009,0.07787206128192659,0.052066720453308735,0.019791694108814446,0.026722879288956985
9/16/1999,585.342,55.4101,41247.0743,11.8046,15.4765,5.1631,7.5664,0.30516443792815795,0.3016506989559897,0.9207982593807962,1.8149254780652417,0.013624673616428051,0.002699448458012732,0.10226083986251355,0.052066720453308735,0.02002500911041152,0.02673222822806061
9/17/1999,585.342,55.4101,41247.0743,11.8046,15.4765,5.1770000000000005,7.5664,0.34140021765041206,0.35938228740218703,0.923277215009274,1.8198115860517436,0.002692181054017917,-0.013228118328758698,0.10851783649522506,0.052066720453308735,0.01958158358652368,0.026725122216699072
9/20/1999,585.342,55.4101,41247.0743,11.8046,15.4765,5.3435,7.5664,0.4628904645878391,0.4401127932762068,0.9529711799115423,1.8783394263217095,0.03216148348464354,0.015816588407505217,0.16137796131275794,0.052066720453308735,0.020834268606870605,0.02690346742629128
9/21/1999,585.342,55.4101,41247.0743,11.8046,15.4765,5.0798,7.5664,0.37003074599492947,0.4149630508657425,0.9059423598230846,1.7856439820022494,-0.049349677177879636,-0.03175510826471495,0.1209479886135445,0.052066720453308735,0.023553005968977213,0.027606893272060267
9/22/1999,585.342,55.4101,41247.0743,11.8046,15.4765,5.0798,7.5664,0.39597131001126695,0.43793454065789117,0.9059423598230846,1.7856439820022494,0.0,-0.0291829909221214,0.1243968303156402,0.052066720453308735,0.023552349972432884,0.027600177067817293
9/23/1999,585.342,55.4101,41247.0743,11.8046,15.4765,4.9549,7.5664,0.3668312598273151,0.44340845769771864,0.8836674275930947,1.7417393138357704,-0.024587582188274948,-0.05305303392259908,0.11730218504070167,0.052066720453308735,0.02409742638758274,0.027685752188211718
9/24/1999,585.342,55.4101,41247.0743,11.8046,15.4765,4.6496,7.5664,0.3125564588979224,0.4535907859078592,0.8292195748323585,1.6344206974128235,-0.06161577428404208,-0.09702478054843466,0.03873821545060552,0.052066720453308735,0.0272449084264486,0.028808534365786165
9/27/1999,585.342,55.4101,41247.0743,11.8046,15.4765,4.83,7.5664,0.41298306175584365,0.506362811924056,0.8613924953631046,1.6978346456692912,0.038799036476256044,-0.06199021207177824,0.07569987305405235,0.052066720453308735,0.02883395589242029,0.029198688814861106
9/28/1999,585.342,55.4101,41247.0743,11.8046,15.4765,4.5247,7.5664,0.2873278707181064,0.47291453283259366,0.8069446426023684,1.590516029246344,-0.06320910973084881,-0.1259996136758741,0.004618219765092579,0.052066720453308735,0.03162846967702152,0.030316758658395764
9/29/1999,585.342,55.4101,41247.0743,11.8046,15.4765,4.6773,7.5664,0.3412766689607707,0.5203888506538197,0.8341596518761593,1.6441577615298086,0.033725992883506084,-0.11780682396876596,0.022763054316452314,0.052066720453308735,0.032149411120721984,0.030548893617881417
9/30/1999,585.342,55.4101,41247.0743,11.8046,15.4765,4.718999999999999,7.5664,0.2992841409691629,0.47122797356828205,0.8415965187615921,1.6588160854893135,0.008915399910204513,-0.1168709647234959,0.031881395959065806,0.052066720453308735,0.03217236532559081,0.030565684821464524
10/1/1999,585.342,55.4101,41247.0743,11.8046,15.4765,4.718999999999999,7.5664,0.2609218436873746,0.3870140280561123,0.8415965187615921,1.6588160854893135,0.0,-0.09090909090909105,0.04775860920535524,0.052066720453308735,0.031745421646707135,0.030496380273185582
10/4/1999,585.342,55.4101,41247.0743,11.8046,15.4765,4.7467,7.5664,0.28734541115209367,0.41155890648730753,0.8465365958053931,1.668553149606299,0.005869887688069619,-0.08799738697715531,0.0506662534862099,0.052066720453308735,0.031787027495320634,0.03050117226370397
10/5/1999,585.342,55.4101,41247.0743,11.8046,15.4765,4.6496,7.5664,0.24700960145899264,0.39588585528080245,0.8292195748323585,1.6344206974128235,-0.02045631702024553,-0.10665360155244286,0.02601672661473642,0.052066720453308735,0.031974731288576655,0.030622239032994204
10/6/1999,585.342,55.4101,41247.0743,11.8046,15.4765,4.6079,7.5664,0.2735338013376818,0.4691835719418498,0.8217827079469254,1.6197623734533182,-0.008968513420509416,-0.13316904322961742,0.039055629467607655,0.052066720453308735,0.03141158506448904,0.030516223724302658
10/7/1999,585.342,55.4101,41247.0743,11.8046,15.4765,4.7606,7.5664,0.3057765099566625,0.4618739371331395,0.8490155514338708,1.6734392575928008,0.03313873999001715,-0.10677899318911,0.08365391181625736,0.052066720453308735,0.03253138501723012,0.03075067935326763
10/8/1999,585.342,55.4101,41247.0743,11.8046,15.4765,4.5385,7.5664,0.22173468289006149,0.5094217723699794,0.8094057640176916,1.5953669853768278,-0.04665378313657942,-0.1905942359823084,0.03808325709057647,0.038799036476256044,0.03099102907590018,0.03134077168609236
10/11/1999,585.342,55.4101,41247.0743,11.8046,15.4765,4.6635,7.5664,0.21038698123491395,0.42650990163253644,0.8316985304608361,1.639306805399325,0.027542139473394345,-0.1515046759579346,0.06667429094236055,0.038799036476256044,0.03191672014662397,0.03151707000993511
10/12/1999,585.342,55.4101,41247.0743,11.8046,15.4765,4.83,7.5664,0.25360118352409877,0.40849749539308067,0.8613924953631046,1.6978346456692912,0.0357027983274365,-0.10997272794280244,0.10828113168582632,0.038799036476256044,0.033228985412557734,0.03180303241807158
10/13/1999,585.342,55.4101,41247.0743,11.8046,15.4765,4.656000000000001,7.5664,0.2041275506245639,0.35322109292161286,0.8303609644742476,1.6366704161979753,-0.03602484472049683,-0.11017677974199702,0.06495882891125349,0.038799036476256044,0.033239264980057345,0.032163743829290804
10/14/1999,585.342,55.4101,41247.0743,11.8046,15.4765,4.6977,7.5664,0.21926341197539512,0.3220431363388616,0.8377978313596804,1.6513287401574803,0.008956185567010166,-0.07774309441074267,0.07109145215349177,0.038799036476256044,0.032991777913096286,0.03217680777357558
10/15/1999,585.342,55.4101,41247.0743,11.8046,15.4765,4.4475,7.5664,0.17110356268267624,0.3595334017958238,0.7931766300470823,1.5633787964004497,-0.05326010600932385,-0.13859890375936945,-0.020050677536631034,0.038799036476256044,0.03446948235809649,0.032621192273756774
10/18/1999,585.342,55.4101,41247.0743,11.8046,15.4765,4.4753,7.5664,0.18272153069584296,0.3681651206427232,0.7981345413040377,1.5731510123734531,0.006250702641933614,-0.13554181958663325,0.007632728418967005,0.038799036476256044,0.03452566205199181,0.03251170132980803
10/19/1999,585.342,55.4101,41247.0743,11.8046,15.4765,4.6977,7.5664,0.2740561944022566,0.44920264699500967,0.8377978313596804,1.6513287401574803,0.049694992514468295,-0.12085711612239158,0.04465298316618127,0.049694992514468295,0.03569538885747375,0.03306352971293512
10/20/1999,585.342,55.4101,41247.0743,11.8046,15.4765,4.934,7.5664,0.28059383840743335,0.3184354641958005,0.879940077043801,1.734392575928009,0.05030121123102793,-0.02870191739832262,0.03945899256325447,0.05030121123102793,0.03619503309625368,0.03293082056191492
10/21/1999,585.342,55.4101,41247.0743,11.8046,15.4765,4.7533,7.5664,0.23369410054763962,0.3184354641958005,0.8477136538735912,1.670873172103487,-0.036623429266315344,-0.0642741840229929,0.050522686586956134,0.05030121123102793,0.03702946720506312,0.03271680102070334
10/22/1999,585.342,55.4101,41247.0743,11.8046,15.4765,4.9618,7.5664,0.2878091826935556,0.28601832385994963,0.8848979883007563,1.7441647919010124,0.04386426272273991,0.0013925608993117233,0.12067758328627898,0.05030121123102793,0.03798835442561608,0.03301695898472087
10/25/1999,585.342,55.4101,41247.0743,11.8046,15.4765,4.795,7.5664,0.23125513557929334,0.19391947411668053,0.8551505207590241,1.685531496062992,-0.03361683260107229,0.03127150722642802,0.07292295988006536,0.05030121123102793,0.036135874421621,0.03331230197064595
10/26/1999,585.342,55.4101,41247.0743,11.8046,15.4765,4.6977,7.5664,0.17301737914502602,0.20605273671594082,0.8377978313596804,1.6513287401574803,-0.020291970802919668,-0.027391304347826106,-0.018941608888146333,0.05030121123102793,0.03542843682944711,0.03219934144134165
10/27/1999,585.342,55.4101,41247.0743,11.8046,15.4765,4.6977,7.5664,0.17707341518416442,0.13372588323728385,0.8377978313596804,1.6513287401574803,0.0,0.03823457908811645,-0.010322961215159854,0.05030121123102793,0.03241063988916409,0.03217912000355256
10/28/1999,585.342,55.4101,41247.0743,11.8046,15.4765,4.5726,7.5664,0.19106040478237096,0.21833242166132671,0.8154872307033815,1.6073537682789651,-0.026630053004661813,-0.022384709127060365,-0.0478114197659405,0.05030121123102793,0.032158618775524894,0.032323122293267434
10/29/1999,585.342,55.4101,41247.0743,11.8046,15.4765,4.6282,7.5664,0.21427259609077787,0.23809523809523792,0.825403053217292,1.6268982002249717,0.012159384157809372,-0.01924136469591009,-0.01342939972714885,0.05030121123102793,0.03221428040770518,0.03222620191271434
11/1/1999,585.342,55.4101,41247.0743,11.8046,15.4765,4.6699,7.5664,0.1865186239138168,0.19899385131358294,0.8328399201027251,1.641556524184477,0.009009982282528917,-0.010404746768382989,-0.04413059052297619,0.05030121123102793,0.032280236403264544,0.03181531497365213
11/2/1999,585.342,55.4101,41247.0743,11.8046,15.4765,4.2668,7.5664,0.08031193032205786,0.20181790561069457,0.7609502068768726,1.4998593925759278,-0.0863187648557785,-0.1011018181052099,-0.17581610971605188,0.05030121123102793,0.037317376862787105,0.032688023935007894
11/3/1999,585.342,55.4101,41247.0743,11.8046,15.4765,4.378,7.5664,0.11626721060683343,0.185517593064763,0.7807818519046941,1.5389482564679415,0.02606168557232591,-0.05841362697866492,-0.20943334898335075,0.05030121123102793,0.037694839493904335,0.03157644610330622
11/4/1999,585.342,55.4101,41247.0743,11.8046,15.4765,4.2112,7.5664,0.09692375817248822,0.2002552681618086,0.7510343843629619,1.480314960629921,-0.038099588853357735,-0.08609127802252659,-0.23379789672864892,0.05030121123102793,0.038485026761169695,0.031877171949566276
11/5/1999,585.342,55.4101,41247.0743,11.8046,15.4765,4.0723,7.5664,0.060743403401839036,0.2400302154150713,0.7262626622913397,1.4314890326209224,-0.03298347264437684,-0.1445826156366844,-0.18042585734986305,0.05030121123102793,0.03803432971059284,0.02986147724798759
11/8/1999,585.342,55.4101,41247.0743,11.8046,15.4765,4.1695,7.5664,0.11824813602960904,0.21721289492034535,0.743597517477529,1.4656566366704162,0.0238685754978758,-0.08130439572545989,-0.1902625650586499,0.05030121123102793,0.037440120160987966,0.029639655789994616
11/9/1999,585.342,55.4101,41247.0743,11.8046,15.4765,4.3085,7.5664,0.15552754385023881,0.2507375422410556,0.7683870737623058,1.514517716535433,0.033337330615181626,-0.07612308352096053,-0.17439543172498373,0.05030121123102793,0.037699692801376285,0.02992099751723268
11/10/1999,585.342,55.4101,41247.0743,11.8046,15.4765,4.3919,7.5664,0.20010383648486152,0.31981637337413926,0.7832608075331716,1.543834364454443,0.019357084832308136,-0.09070393374741204,-0.15616654177954548,0.05030121123102793,0.037021608783394805,0.030048494817275683
11/11/1999,585.342,55.4101,41247.0743,11.8046,15.4765,4.3085,7.5664,0.19997214872580438,0.2967553265561902,0.7683870737623058,1.514517716535433,-0.018989503403993524,-0.07463487972508598,-0.16326808047852093,0.05030121123102793,0.03646394001954658,0.030104388535440618
11/12/1999,585.342,55.4101,41247.0743,11.8046,15.4765,4.3641,7.5664,0.21545745717866582,0.3083693078958363,0.7783028962762163,1.5340621484814396,0.012904723221538683,-0.07101347467909835,-0.15247028664646944,0.05030121123102793,0.03653902296091544,0.030164647795675063
11/15/1999,585.342,55.4101,41247.0743,11.8046,15.4765,4.4753,7.5664,0.24642807408438938,0.23868541985795844,0.7981345413040377,1.5731510123734531,0.025480626016818997,0.006250702641933614,-0.13087469898236626,0.05030121123102793,0.035120762966877814,0.03036437030739938
11/16/1999,585.342,55.4101,41247.0743,11.8046,15.4765,4.3224,7.5664,0.1992009765841749,0.2416213516812784,0.7708660293907833,1.5194038245219346,-0.03416530735369694,-0.03416530735369694,-0.17612076852699,0.05030121123102793,0.03591092762130217,0.03051776912980494
11/17/1999,585.342,55.4101,41247.0743,11.8046,15.4765,4.6421,7.5664,0.4006275835017954,0.41740337326132226,0.8278820088457698,1.6317843082114736,0.07396353877475481,-0.011835579113183115,-0.11752181434518938,0.07396353877475481,0.037957191690532,0.03200237288277144
11/18/1999,585.342,55.4101,41247.0743,11.8046,15.4765,4.5309,7.5664,0.43274095623577025,0.5602074373893247,0.8080503638179484,1.5926954443194599,-0.023954675685573412,-0.08169841913254972,-0.13637923147301012,0.07396353877475481,0.03647898506678218,0.03212731160963421
11/19/1999,585.342,55.4101,41247.0743,11.8046,15.4765,4.3641,7.5664,0.4045121009268793,0.5297695674562306,0.7783028962762163,1.5340621484814396,-0.036813878037476044,-0.08187995708244811,-0.16596273291925467,0.07396353877475481,0.03648767700479021,0.03242857895702582
11/22/1999,585.342,55.4101,41247.0743,11.8046,15.4765,4.3224,7.5664,0.44905963994770204,0.6634147976801101,0.7708660293907833,1.5194038245219346,-0.00955523475630704,-0.12886452497077672,-0.17393215480171997,0.07396353877475481,0.03485166841430039,0.0324397271482544
11/23/1999,585.342,55.4101,41247.0743,11.8046,15.4765,4.2807,7.5664,0.36554166135000665,0.5296031644762027,0.7634291625053504,1.5047455005624297,-0.00964741810105485,-0.10725755995828978,-0.16866697739454672,0.07396353877475481,0.03428875864475268,0.03240750834908438
11/24/1999,585.342,55.4101,41247.0743,11.8046,15.4765,4.3919,7.5664,0.34758062041667936,0.44141020527139396,0.7832608075331716,1.543834364454443,0.025977059826663762,-0.06509568512250685,-0.14707138973044365,0.07396353877475481,0.03472887525675945,0.0326033040906956
11/25/1999,585.342,55.4101,41247.0743,11.8046,15.4765,4.3919,7.5664,0.4134590628218331,0.5118756436663234,0.7832608075331716,1.543834364454443,0.0,-0.06509568512250685,-0.15165153563840073,0.07396353877475481,0.03472887525675945,0.03259064789282082
11/26/1999,585.342,55.4101,41247.0743,11.8046,15.4765,4.3919,7.5664,0.3948739122149525,0.45226449850727324,0.7832608075331716,1.543834364454443,0.0,-0.03951799851288118,-0.1716365831117147,0.07396353877475481,0.034291801636064226,0.03241903152809615
11/29/1999,585.342,55.4101,41247.0743,11.8046,15.4765,4.1695,7.5664,0.34786965798150904,0.4961531001487036,0.743597517477529,1.4656566366704162,-0.050638675743983175,-0.0991098051078172,-0.2197061850846822,0.07396353877475481,0.035761212912313406,0.03295201858063695
11/30/1999,585.342,55.4101,41247.0743,11.8046,15.4765,4.114,7.5664,0.3665504069091512,0.5512041189171235,0.7336995291767727,1.4461473565804273,-0.013310948554982716,-0.11903895158354572,-0.20745920745920754,0.07396353877475481,0.03567609690146165,0.03281993375021622
12/1/1999,585.342,55.4101,41247.0743,11.8046,15.4765,4.1556,7.5664,0.4607705286839143,0.4998593925759278,0.7411185618490512,1.2696996547404442,0.010111813320369478,-0.02606168557232591,-0.20156781370684196,0.07396353877475481,0.030583336866531773,0.03285462599241925
12/2/1999,585.342,55.4101,41247.0743,11.8046,15.4765,3.975,7.5664,0.21451923370711,0.3376516239420697,0.7089099728919961,1.1402426780643127,-0.04345942824140914,-0.09205116491548648,-0.23626722001268086,0.07396353877475481,0.03128336081185507,0.033243878707239244
12/3/1999,585.342,55.4101,41247.0743,11.8046,15.4765,3.8638,7.5664,0.05979483240989625,0.15508256075484117,0.6890783278641747,1.1083445684289033,-0.02797484276729567,-0.08249430091185406,-0.27314797396440804,0.07396353877475481,0.030807975254795675,0.03322475503531696
12/6/1999,585.342,55.4101,41247.0743,11.8046,15.4765,3.6692,7.5664,0.014095406555745926,0.12550439445027917,0.6543729490654873,1.0525228765669372,-0.050364925720792986,-0.09898583110281667,-0.31155599752331276,0.07396353877475481,0.031851477619344974,0.033708604789828074
12/7/1999,585.342,55.4101,41247.0743,11.8046,15.4765,3.3634,7.5664,-0.09459459459459463,0.12240228276084864,0.5998359252389784,1.0,-0.08334241796576913,-0.1933325338769637,-0.40016407476102156,0.07396353877475481,0.03546881132925,0.034300616038962714
12/8/1999,585.342,55.4101,41247.0743,11.8046,15.4765,3.4746,7.5664,-0.046958143617312986,0.18177080476164376,0.6196675702667999,1.033061782719867,0.03306178271986693,-0.19354763838923061,-0.3678177650012736,0.07396353877475481,0.03545218948386685,0.034639665123696595
12/9/1999,585.342,55.4101,41247.0743,11.8046,15.4765,3.5163,7.5664,-0.03915728494917481,0.20010383648486152,0.627104437152233,1.0454599512398168,0.012001381453980331,-0.1993670165532001,-0.3520490897029557,0.07396353877475481,0.0351872511710627,0.034710093701675715
12/10/1999,585.342,55.4101,41247.0743,11.8046,15.4765,3.4746,7.5664,-0.05055197289321234,0.17731446059678668,0.6196675702667999,1.033061782719867,-0.011859056394505574,-0.19354763838923061,-0.3359579550883899,0.07396353877475481,0.03512990533960806,0.03451196052771007
12/13/1999,585.342,55.4101,41247.0743,11.8046,15.4765,3.5580000000000003,7.5664,-0.0457544386633052,0.1704393069784904,0.634541304037666,1.057858119759767,0.024002762907960662,-0.1847116243899084,-0.3014900759762059,0.07396353877475481,0.035566141272601826,0.03461152144667824
12/14/1999,585.342,55.4101,41247.0743,11.8046,15.4765,3.5302,7.5664,-0.05321032022743133,0.20026283323499428,0.6295833927807105,1.0495926740798,-0.00781337830241724,-0.21118137331575537,-0.3162634851155314,0.07396353877475481,0.03467996509953274,0.03452991757341684
12/15/1999,585.342,55.4101,41247.0743,11.8046,15.4765,3.5858,7.5664,-0.031126722507430427,0.16790056741421244,0.6394992152946212,1.0661235654397336,0.015749815874454676,-0.17041458449009816,-0.3073594745991888,0.07396353877475481,0.03469867661896406,0.03461849119620577
12/16/1999,585.342,55.4101,41247.0743,11.8046,15.4765,3.7665,7.5664,-0.004598430191072644,0.22680303390681567,0.671725638464831,1.1198489623595171,0.05039321769200744,-0.1886215290493527,-0.29512491812482444,0.05039321769200744,0.032196338724471425,0.03500997765005767
12/17/1999,585.342,55.4101,41247.0743,11.8046,15.4765,3.8221,7.5664,0.010095404212584924,0.19741536509950053,0.6816414609787416,1.1363798537194505,0.01476171512013802,-0.1564369109889867,-0.2475884877357376,0.05039321769200744,0.03242899323364918,0.034627578510835026
12/20/1999,585.342,55.4101,41247.0743,11.8046,15.4765,3.7943,7.5664,-0.0045126590581137105,0.14498229043683586,0.6766835497217862,1.1281144080394838,-0.007273488396431271,-0.13056529410416806,-0.25306114413953307,0.05039321769200744,0.031729654924001705,0.0346264606048911
12/21/1999,585.342,55.4101,41247.0743,11.8046,15.4765,3.7804,7.5664,-0.008159517250426296,0.13404171585989766,0.6742045940933087,1.1239816851995006,-0.0036633898215743255,-0.12539330001850824,-0.23703808351328992,0.05039321769200744,0.03172410091841311,0.0345262471046467
12/22/1999,585.342,55.4101,41247.0743,11.8046,15.4765,3.7387,7.5664,-0.033103162903768024,0.10706804251687507,0.6667677272078757,1.1115835166795505,-0.011030578774732902,-0.12661480598967467,-0.19590932553337925,0.05039321769200744,0.03173376808639118,0.03373663010542657
12/23/1999,585.342,55.4101,41247.0743,11.8046,15.4765,3.7943,7.5664,-0.01872397651744384,0.13582641528952344,0.6766835497217862,1.1281144080394838,0.014871479391232123,-0.13606867187322114,-0.21443064182194627,0.05039321769200744,0.031264403901433604,0.03339267111512471
12/24/1999,585.342,55.4101,41247.0743,11.8046,15.4765,3.7943,7.5664,-0.035952030082829434,0.11588495350373496,0.6766835497217862,1.1281144080394838,0.0,-0.13606867187322114,-0.16142506685526115,0.05039321769200744,0.031264403901433604,0.032500333027572374
12/27/1999,585.342,55.4101,41247.0743,11.8046,15.4765,3.7109,7.5664,-0.019292264594730324,0.16068077909035638,0.6618098159509203,1.1033180709995838,-0.02198033892944673,-0.15505817527721477,-0.20661492741538912,0.05039321769200744,0.03140474219012524,0.03226224032626466
12/28/1999,585.342,55.4101,41247.0743,11.8046,15.4765,3.7804,7.5664,-0.04948204767172881,0.04835059841094247,0.6742045940933087,1.1239816851995006,0.01872861031016737,-0.0933205420314186,-0.19889807162534423,0.05039321769200744,0.030269388950284307,0.03234501657592616
12/29/1999,585.342,55.4101,41247.0743,11.8046,15.4765,3.8499,7.5664,0.010074773711137297,0.0793650793650793,0.686599372235697,1.1446452993994172,0.018384297957887874,-0.06419543023821095,-0.18417037507946588,0.05039321769200744,0.030581445278621285,0.032455209905803604
12/30/1999,585.342,55.4101,41247.0743,11.8046,15.4765,3.8082,7.5664,-0.0008658008658009031,0.09027941755214464,0.6791625053502639,1.1322471308794673,-0.010831450167536838,-0.08359803638463759,-0.19771630817199315,0.05039321769200744,0.030484091903216014,0.032452269375703904
12/31/1999,585.342,55.4101,41247.0743,11.8046,15.4765,3.9055,7.5664,0.03413122914791078,0.05253402531377427,0.6965151947496077,1.1611761907593507,0.025550128669712846,-0.017484276729559767,-0.16003527185134214,0.05039321769200744,0.02969273650566688,0.03256979988878093
1/3/2000,585.342,55.4101,41247.0743,11.8046,15.4765,3.4468,7.5664,-0.08058363786710765,0.030648990370508722,0.6147096590098445,1.0247963370399003,-0.11744975035206762,-0.10792484083027065,-0.2519802947112567,0.05039321769200744,0.03885245736607231,0.03565309796447404
1/4/2000,585.342,55.4101,41247.0743,11.8046,15.4765,3.4468,7.5664,-0.06681828026857262,-0.006606021225904257,0.6147096590098445,1.0247963370399003,0.0,-0.06061266761146844,-0.2759736167709953,0.05039321769200744,0.03741885949216872,0.03534002416515985
1/5/2000,585.342,55.4101,41247.0743,11.8046,15.4765,3.3495,7.5664,-0.09316114359974015,-0.08939787740957328,0.5973569696105008,1.0,-0.02822908204711616,-0.004132722839983338,-0.2619808306709265,0.05039321769200744,0.03313629156813779,0.03506056279491494
1/6/2000,585.342,55.4101,41247.0743,11.8046,15.4765,3.6275,7.5664,-0.06350845488576218,-0.10298179940622176,0.6469360821800543,1.0829974623078071,0.08299746230780713,0.04400506533126114,-0.22215074514849364,0.08299746230780713,0.037149670105638306,0.03653528856131574
1/7/2000,585.342,55.4101,41247.0743,11.8046,15.4765,3.5719,7.5664,-0.08113600699714463,-0.0954389936459753,0.6370202596661435,1.0663979698462458,-0.015327360441075188,0.015812075192674024,-0.26047619047619053,0.08299746230780713,0.03728703101700199,0.036220675435676794
1/10/2000,585.342,55.4101,41247.0743,11.8046,15.4765,3.6136,7.5664,-0.07698595146871012,-0.11249042145593868,0.6444571265515766,1.0788475891924167,0.011674458971415724,0.040004604846600955,-0.22388316151202758,0.08299746230780713,0.037221324075712346,0.03604114840149266
1/11/2000,585.342,55.4101,41247.0743,11.8046,15.4765,3.6414,7.5664,-0.08601691724605309,-0.10695012675384652,0.6494150378085319,1.0871473354231975,0.007693159176444642,0.023440134907251275,-0.22485471613768448,0.08299746230780713,0.03692021762581622,0.036034534570407485
1/12/2000,585.342,55.4101,41247.0743,11.8046,15.4765,3.6481,7.5664,-0.06817369093231163,-0.09828863346104733,0.6506099300898844,1.0891476339752202,0.0018399516669411753,0.03339754121579519,-0.17974142776840918,0.08299746230780713,0.036854947439387276,0.03546872176245856
1/13/2000,585.342,55.4101,41247.0743,11.8046,15.4765,3.7177,7.5664,-0.026295801576700417,-0.06084177994290352,0.6630225424454274,1.109926854754441,0.01907842438529639,0.03678398125941218,-0.1692847406877751,0.08299746230780713,0.03692308915041449,0.03555654173341742
1/14/2000,585.342,55.4101,41247.0743,11.8046,15.4765,3.7177,7.5664,0.002778227329125471,0.01594109079139039,0.6630225424454274,1.109926854754441,0.0,-0.012956325501128463,-0.2086127253762481,0.08299746230780713,0.035246811085670314,0.03492999513768881
1/17/2000,585.342,55.4101,41247.0743,11.8046,15.4765,3.7177,7.5664,0.002778227329125471,0.03093812375249505,0.6630225424454274,1.109926854754441,0.0,-0.02731482692760523,-0.24651398459667617,0.08299746230780713,0.035084312561074,0.03425818367212747
1/18/2000,585.342,55.4101,41247.0743,11.8046,15.4765,3.8013,7.5664,-0.0044000942877346905,-0.006233466907624274,0.6779319446426024,1.134885803851321,0.022487021545579244,0.001844872572015932,-0.20028190941030444,0.08299746230780713,0.03540564181572897,0.03415665475335409
1/19/2000,585.342,55.4101,41247.0743,11.8046,15.4765,3.8152,7.5664,0.029076981172789562,0.019690349031666443,0.6804109002710801,1.1390356769667114,0.003656643779759605,0.00920537509258268,-0.23108549316780203,0.08299746230780713,0.035396522137029734,0.03363942731578438
1/20/2000,585.342,55.4101,41247.0743,11.8046,15.4765,3.7316,7.5664,0.07042253521126751,0.07245919508906806,0.665501498073905,1.1140767278698314,-0.021912350597609542,-0.0018990558215423725,-0.2217726798748697,0.08299746230780713,0.03566092497958446,0.03350298839607766
1/21/2000,585.342,55.4101,41247.0743,11.8046,15.4765,3.6202,7.5664,-0.0049748508919000844,0.04287716790808882,0.6456341846197746,1.0808180325421706,-0.029853146103548056,-0.045884616398281564,-0.22936756284990534,0.08299746230780713,0.036094783867026276,0.0336022098611492
1/24/2000,585.342,55.4101,41247.0743,11.8046,15.4765,3.5367,7.5664,-0.03159825853618459,0.0389365022863557,0.630742616635754,1.0558889386475594,-0.023065024031821424,-0.06789131065018572,-0.2471422185324733,0.08299746230780713,0.03639351380029529,0.03368833307044667
1/25/2000,585.342,55.4101,41247.0743,11.8046,15.4765,3.4810000000000003,7.5664,-0.07146096188215201,-0.010136306649950577,0.6208089599086889,1.039259590983729,-0.015749144682896454,-0.06195262604758944,-0.23872632637886537,0.08299746230780713,0.036253532679575415,0.03359783027776215
1/26/2000,585.342,55.4101,41247.0743,11.8046,15.4765,3.5228,7.5664,-0.0637822897842032,0.004677367917508279,0.6282636610072764,1.051739065532169,0.012008043665613366,-0.06814093746693473,-0.23884015383950552,0.08299746230780713,0.036087007391233,0.03359667952784053
1/27/2000,585.342,55.4101,41247.0743,11.8046,15.4765,3.4392,7.5664,-0.08933961764550125,0.019408992215219856,0.6133542588101013,1.026780116435289,-0.023731122970364504,-0.10667809553494889,-0.26353883380800447,0.08299746230780713,0.03602592507942898,0.03364920779368879
1/28/2000,585.342,55.4101,41247.0743,11.8046,15.4765,3.3975,7.5664,-0.08358957760155361,0.027188865512218774,0.6059173919246683,1.0143304970891178,-0.012124912770411722,-0.10784622656373088,-0.20373582075560137,0.08299746230780713,0.036037996256579274,0.03198888310683055
1/31/2000,585.342,55.4101,41247.0743,11.8046,15.4765,3.5367,7.5664,-0.038887983042556695,0.06133485515517134,0.630742616635754,1.0558889386475594,0.040971302428256084,-0.09443093073870179,-0.19216537231612607,0.08299746230780713,0.036835306801965735,0.032262079897632176
2/1/2000,585.342,55.4101,41247.0743,11.8046,15.4765,3.5924,7.5664,-0.04528542574678429,-0.08398001488253426,0.6406762733628193,1.0725182863113898,0.015749144682896343,0.04224207961007309,-0.14694148936170204,0.08299746230780713,0.02629092986256383,0.03202589927645399
2/2/2000,585.342,55.4101,41247.0743,11.8046,15.4765,3.6759,7.5664,-0.023094504092696977,-0.08398001488253426,0.6555678413468398,1.097447380206001,0.023243514085291128,0.06646744806777294,-0.09734056921150214,0.08299746230780713,0.02667599685637469,0.0319320497462513
2/3/2000,585.342,55.4101,41247.0743,11.8046,15.4765,3.5924,7.5664,-0.016346759398702115,-0.08285643876126059,0.6406762733628193,1.0725182863113898,-0.0227155254495498,0.07251828631138979,-0.13840988128072917,0.08299746230780713,0.026374558528218114,0.03188352685624423
2/4/2000,585.342,55.4101,41247.0743,11.8046,15.4765,3.4949,7.5664,-0.03941401203858952,-0.0029684193167138773,0.6232879155371666,1.0434094640991192,-0.02714063021935198,-0.036554100620261876,-0.18883602181733794,0.040971302428256084,0.01998698276483238,0.03171689943238478
2/7/2000,585.342,55.4101,41247.0743,11.8046,15.4765,3.4949,7.5664,-0.03573005187065448,-0.014485156163778878,0.6232879155371666,1.0434094640991192,0.0,-0.021557154455611793,-0.20423962294223452,0.040971302428256084,0.01973824188336539,0.031592171532891435
2/8/2000,585.342,55.4101,41247.0743,11.8046,15.4765,3.4532,7.5664,-0.047235404480741705,-0.002979803553691651,0.6158510486517335,1.0309598447529482,-0.01193167186471722,-0.044387868054018176,-0.198514564233492,0.040971302428256084,0.019661229850421697,0.03154747498139134
2/9/2000,585.342,55.4101,41247.0743,11.8046,15.4765,3.3557,7.5664,-0.07767363878734568,0.0008520462853529587,0.5984626908260808,1.0018510225406778,-0.02823468087570935,-0.07845883451419777,-0.23106711578561434,0.040971302428256084,0.02032958021270265,0.03163840587040724
2/10/2000,585.342,55.4101,41247.0743,11.8046,15.4765,3.5367,7.5664,-0.016709297153024827,0.014262677935942936,0.630742616635754,1.0558889386475594,0.05393807551330565,-0.03053644362818997,-0.2097289567179853,0.05393807551330565,0.02390259021629505,0.03225826303408863
2/11/2000,585.342,55.4101,41247.0743,11.8046,15.4765,3.4810000000000003,7.5664,-0.03589431119481512,0.029662659945715486,0.6208089599086889,1.039259590983729,-0.015749144682896454,-0.06366839712725592,-0.19466037386637047,0.05393807551330565,0.02363150593513378,0.03205603710307795
2/14/2000,585.342,55.4101,41247.0743,11.8046,15.4765,3.5088,7.5664,-0.05003248862897991,0.006524799653454538,0.6257668711656442,1.0475593372145096,0.007986210858948573,-0.05619065551281699,-0.2441351974321967,0.05393807551330565,0.023743900502044078,0.03054599591931134
2/15/2000,585.342,55.4101,41247.0743,11.8046,15.4765,3.6202,7.5664,-0.008734700583226007,0.01796226828400105,0.6456341846197746,1.0808180325421706,0.03174874601003186,-0.026225892352798708,-0.20099759429693875,0.05393807551330565,0.02489294875414266,0.030763469958886354
2/16/2000,585.342,55.4101,41247.0743,11.8046,15.4765,3.5506,7.5664,0.0025978426610946403,0.0733890551759191,0.6332215722642318,1.0600388117629498,-0.01922545715706314,-0.0659511219845842,-0.18640727756009245,0.05393807551330565,0.024589795326371285,0.03053133646360348
2/17/2000,585.342,55.4101,41247.0743,11.8046,15.4765,3.6063,7.5664,0.006531022356191851,0.06483574757877686,0.643155228991297,1.0766681594267802,0.0156874894384047,-0.05475466554833297,-0.16567184897279286,0.05393807551330565,0.024889941796134147,0.030606822476606753
2/18/2000,585.342,55.4101,41247.0743,11.8046,15.4765,3.4949,7.5664,-0.013130400406618836,0.053707573276105425,0.6232879155371666,1.0434094640991192,-0.030890386268474623,-0.06343123593096789,-0.18356810801971646,0.05393807551330565,0.025315580448383498,0.0308043181968789
2/21/2000,585.342,55.4101,41247.0743,11.8046,15.4765,3.4949,7.5664,-0.04664611691535514,-0.012466242941706063,0.6232879155371666,1.0434094640991192,0.0,-0.034611347439368,-0.20423962294223452,0.05393807551330565,0.024547802626643883,0.030586836637532352
2/22/2000,585.342,55.4101,41247.0743,11.8046,15.4765,3.4532,7.5664,-0.06856557155958354,-0.04604304903706091,0.6158510486517335,1.0309598447529482,-0.01193167186471722,-0.023609579551559512,-0.2137343746442314,0.05393807551330565,0.02417369158507019,0.030603948166307987
2/23/2000,585.342,55.4101,41247.0743,11.8046,15.4765,3.2861,7.5664,-0.12987872689720925,-0.07827146110257899,0.5860500784705379,1.0,-0.04838989922390824,-0.05598965814421153,-0.25178168901842024,0.05393807551330565,0.026147580034232714,0.031121629362118763
2/24/2000,585.342,55.4101,41247.0743,11.8046,15.4765,3.1189999999999998,7.5664,-0.1361546557358888,-0.024317287985376246,0.5562491082893423,1.0,-0.05085055232646607,-0.11462473032814813,-0.2519486749010673,0.05393807551330565,0.027949632933315288,0.03112674974710063
2/25/2000,585.342,55.4101,41247.0743,11.8046,15.4765,3.0911,7.5664,-0.1962400540849758,-0.10572572676686254,0.5512733628192324,1.0,-0.008945174735492056,-0.10121539892998377,-0.24863879436071945,0.05393807551330565,0.027649625986591625,0.031110794399187146
2/28/2000,585.342,55.4101,41247.0743,11.8046,15.4765,3.1607,7.5664,-0.1781423890997973,-0.11656872432263776,0.5636859751747753,1.0225162563488726,0.022516256348872554,-0.06969830757910234,-0.23941187794782948,0.05393807551330565,0.02821243999927514,0.031240799867463483
2/29/2000,585.342,55.4101,41247.0743,11.8046,15.4765,3.3975,7.5664,-0.11015950341793035,-0.07370157931955679,0.6059173919246683,1.0991232894438874,0.07492011263327747,-0.039358724234455855,-0.1452830188679246,0.07492011263327747,0.0316273501816939,0.03235975188702019
3/1/2000,585.342,55.4101,41247.0743,11.8046,15.4765,3.4810000000000003,7.5664,-0.08162726888982685,-0.052237230899113585,0.6208089599086889,1.1261363268739284,0.024576894775570457,-0.031009909809597946,-0.09907345100678078,0.07492011263327747,0.03192449371862884,0.0323558301864171
3/2/2000,585.342,55.4101,41247.0743,11.8046,15.4765,3.9544,7.5664,0.02823859795101158,-0.04417806438192318,0.7052361249821658,1.2792856911778978,0.13599540361964957,0.0757637585353248,0.0777281151204623,0.13599540361964957,0.043567326771504454,0.03608605848847006
3/3/2000,585.342,55.4101,41247.0743,11.8046,15.4765,3.8569,7.5664,-0.028562073394957532,-0.09518172430294936,0.6878477671565131,1.2477435217236583,-0.024656079304066436,0.07362765838993424,0.1467265267289053,0.13599540361964957,0.04362961869416297,0.03457801072017201
3/6/2000,585.342,55.4101,41247.0743,11.8046,15.4765,3.8709,7.5664,0.010151356993737037,-0.08796972860125263,0.6903445569981452,1.2522726537478568,0.003629858176255496,0.1075853386362986,0.11405629424969765,0.13599540361964957,0.04303503758961727,0.03436011040645741
3/7/2000,585.342,55.4101,41247.0743,11.8046,15.4765,4.1633,7.5664,0.07100043732153405,-0.10094410001800747,0.7424917962619488,1.3468668111675455,0.07553798858146688,0.19125010729920722,0.18400022751187306,0.13599540361964957,0.045612429175128436,0.035561194453226246
3/8/2000,585.342,55.4101,41247.0743,11.8046,15.4765,4.205,7.5664,0.1013331238050339,-0.09557109557109555,0.7499286631473819,1.360357154411051,0.010016093003146764,0.21771110853700915,0.21021124733782304,0.13599540361964957,0.04535182512450351,0.035517573215267675
3/9/2000,585.342,55.4101,41247.0743,11.8046,15.4765,4.1772,7.5664,0.09802066083116467,-0.11791919669847273,0.7449707518904266,1.3513635922487142,-0.006611177170035676,0.2448073427302797,0.17403035413153445,0.13599540361964957,0.04467198198522732,0.03544391589627431
3/10/2000,585.342,55.4101,41247.0743,11.8046,15.4765,4.1354,7.5664,0.10309690842647168,-0.056603270292619134,0.737516050791839,1.3378408980621785,-0.010006703054677879,0.16928209913195902,0.1714350461730214,0.13599540361964957,0.04379793386835276,0.035455943542579596
3/13/2000,585.342,55.4101,41247.0743,11.8046,15.4765,4.0658,7.5664,0.11327729251663432,-0.04684975767366706,0.7251034384362963,1.315324641713306,-0.016830294530154166,0.16799770180982465,0.13386134195995325,0.13599540361964957,0.043828303598596595,0.035506401100910565
3/14/2000,585.342,55.4101,41247.0743,11.8046,15.4765,4.1215,7.5664,0.10754306290812354,-0.05710370031978074,0.7350370951633615,1.33334411698101,0.013699640907078425,0.17461810305517567,0.09425195805124109,0.13599540361964957,0.043843995769127744,0.03500735284204814
3/15/2000,585.342,55.4101,41247.0743,11.8046,15.4765,4.0797,7.5664,0.06463987473903976,-0.05527139874739029,0.7275823940647739,1.3198214227944745,-0.010141938614582124,0.12692668913319705,0.06739750398995326,0.13599540361964957,0.043689428071636796,0.035001823639148076
3/16/2000,585.342,55.4101,41247.0743,11.8046,15.4765,4.1772,7.5664,0.1394746174200059,-0.0314520308791838,0.7449707518904266,1.3513635922487142,0.023898816089418462,0.1764772151185714,0.10091452968927084,0.13599540361964957,0.04342874157914672,0.03509413488877469
3/17/2000,585.342,55.4101,41247.0743,11.8046,15.4765,4.1215,7.5664,0.12003369748355897,-0.01997391162563189,0.7350370951633615,1.33334411698101,-0.013334290912572988,0.14286110417879816,0.0902285472436779,0.13599540361964957,0.04365410135949217,0.03514098288756143
3/20/2000,585.342,55.4101,41247.0743,11.8046,15.4765,4.0937,7.5664,0.10419701138264026,-0.05731779683875493,0.7300791839064061,1.324350554818673,-0.00674511706902825,0.17133537440270108,0.09495279107711241,0.13599540361964957,0.042911031358275696,0.035119549372172126
3/21/2000,585.342,55.4101,41247.0743,11.8046,15.4765,4.1633,7.5664,0.12297027566488627,-0.05731779683875493,0.7424917962619488,1.3468668111675455,0.017001734372328103,0.19125010729920722,0.09725113986769629,0.13599540361964957,0.042905058732774476,0.035133126142491304
3/22/2000,585.342,55.4101,41247.0743,11.8046,15.4765,4.218999999999999,7.5664,0.13374358423131683,-0.07204471555639158,0.7524254529890141,1.3648862864352493,0.013378810078543468,0.22176531912429032,0.11193105447645135,0.13599540361964957,0.04263621062000897,0.03516081381749377
3/23/2000,585.342,55.4101,41247.0743,11.8046,15.4765,4.2329,7.5664,0.15030708190662523,-0.1069895102994729,0.7549044086174919,1.369383067516418,0.0032946195780991783,0.28812269863972495,0.14066668463176035,0.13599540361964957,0.040510910477308384,0.03502339394525776
3/24/2000,585.342,55.4101,41247.0743,11.8046,15.4765,4.1076,7.5664,0.13331861825405578,-0.13944377000331099,0.7325581395348837,1.3288473358998414,-0.029601455267074583,0.3169605642834241,0.0865516876521002,0.13599540361964957,0.03907975201499966,0.03519524001567476
3/27/2000,585.342,55.4101,41247.0743,11.8046,15.4765,4.1076,7.5664,0.14201512455515997,-0.14059719750889677,0.7325581395348837,1.3288473358998414,0.0,0.3288473358998414,0.06693680355333909,0.13599540361964957,0.0388666301211909,0.035132686430932855
3/28/2000,585.342,55.4101,41247.0743,11.8046,15.4765,4.2886,7.5664,0.18325791855203621,-0.12793841739322376,0.764838065344557,1.3874025427841221,0.04406466062907777,0.3568513304014933,0.12614883672076038,0.13599540361964957,0.03937519836614146,0.03549755475683433
3/29/2000,585.342,55.4101,41247.0743,11.8046,15.4765,4.8316,7.5664,0.2888047160500413,-0.09373416202085949,0.8616778427735768,1.563068163436964,0.126614746070979,0.42210448859455485,0.23712712840865446,0.13599540361964957,0.04456086189809572,0.03869564375189186
3/30/2000,585.342,55.4101,41247.0743,11.8046,15.4765,5.124,7.5664,0.33001090172870273,-0.09645434252193308,0.9138250820373804,1.657662320856653,0.060518254822419015,0.47199080723929887,0.48659626320064975,0.13599540361964957,0.0455142168729605,0.03608692598612273
3/31/2000,585.342,55.4101,41247.0743,11.8046,15.4765,4.7202,7.5664,0.2476409483783999,0.045225068062273666,0.8418105293194464,1.5270292129015561,-0.07880562060889917,0.19365769775440023,0.36944412208425215,0.126614746070979,0.04203043555546484,0.037662395663847166
4/3/2000,585.342,55.4101,41247.0743,11.8046,15.4765,5.1797,7.5664,0.3114492606846264,-0.023470731213287466,0.9237587387644458,1.675681796124357,0.09734757001821959,0.3429697425393452,0.5464099119271535,0.126614746070979,0.04540159193617223,0.03913328452137887
4/4/2000,585.342,55.4101,41247.0743,11.8046,15.4765,5.0544,7.5664,0.20368650425091106,-0.07815960562977775,0.9014124696818377,1.6351460645077804,-0.02419059018862102,0.3057428504998838,0.3933563059958649,0.126614746070979,0.04615244346667433,0.03812254701032565
4/5/2000,585.342,55.4101,41247.0743,11.8046,15.4765,4.9430000000000005,7.5664,0.17330105153219866,-0.011773362766740458,0.8815451562277073,1.5991071139723725,-0.022040202595758118,0.1872793216919273,0.3838573308323303,0.126614746070979,0.044505081123398106,0.03819234963350697
4/6/2000,585.342,55.4101,41247.0743,11.8046,15.4765,5.1797,7.5664,0.2800128502940742,0.039143972717837316,0.9237587387644458,1.675681796124357,0.0478858992514668,0.2317954815695602,0.4333905246845253,0.126614746070979,0.04530326593819296,0.03855201384054667
4/7/2000,585.342,55.4101,41247.0743,11.8046,15.4765,5.2633,7.5664,0.2659771497294048,0.004738424533974772,0.9386681409616209,1.702727184497428,0.016139930884027986,0.26000670305467777,0.4454056132256825,0.126614746070979,0.04513469161255741,0.038571133447569995
4/10/2000,585.342,55.4101,41247.0743,11.8046,15.4765,5.0126,7.5664,0.2137633783718338,0.001355997869145975,0.8939577685832502,1.6216233703212448,-0.047631713943723564,0.21211974657832378,0.3740303171513939,0.126614746070979,0.04676942087921521,0.03916799920842813
4/11/2000,585.342,55.4101,41247.0743,11.8046,15.4765,5.2215,7.5664,0.29923610938316436,0.01166985991191627,0.9312134398630333,1.6892044903108925,0.04167497905278705,0.2842491022676963,0.40449740430911585,0.126614746070979,0.04682030334806184,0.039394487919388654
4/12/2000,585.342,55.4101,41247.0743,11.8046,15.4765,5.4234,7.5664,0.3976754374661753,0.06216014225704192,0.9672207162220003,1.7545210442884411,0.03866704969836254,0.3158801407254639,0.45880517524275777,0.126614746070979,0.04715473007876522,0.03959789024481126
4/13/2000,585.342,55.4101,41247.0743,11.8046,15.4765,5.4652,7.5664,0.3368230517097992,-0.0020791546401839334,0.9746754173205879,1.7680437384749768,0.007707342257624372,0.33960830453219604,0.4700486860155475,0.126614746070979,0.04685412002871841,0.03958857610688442
4/14/2000,585.342,55.4101,41247.0743,11.8046,15.4765,5.1864,7.5664,0.23107598091575854,-0.008473972797835239,0.9249536310457983,1.6778493093073663,-0.051013686598843644,0.2415972421717898,0.36437534527661586,0.126614746070979,0.04895078565376949,0.04019957947704561
4/17/2000,585.342,55.4101,41247.0743,11.8046,15.4765,5.1167,7.5664,0.19873957454783997,-0.034415706119388934,0.9125231844771009,1.6553007020154638,-0.013438994292765738,0.24146548586679595,0.3411354581673307,0.126614746070979,0.048953443993659446,0.040271332422516494
4/18/2000,585.342,55.4101,41247.0743,11.8046,15.4765,5.2979,7.5664,0.25754231052244303,-0.028294049229746765,0.9448387787130833,1.7139206107858045,0.03541345007524388,0.2941593179764028,0.4197395219208919,0.126614746070979,0.04903357226890232,0.040290894598093076
4/19/2000,585.342,55.4101,41247.0743,11.8046,15.4765,5.1724,7.5664,0.22775285432837222,-0.011773362766740458,0.922456841204166,1.6733201772831676,-0.02368863134449506,0.2423798429130739,0.428760841942434,0.126614746070979,0.049686881747375934,0.040208948526562704
4/20/2000,585.342,55.4101,41247.0743,11.8046,15.4765,5.3118,7.5664,0.2444475681754288,-0.01157342329678579,0.9473177343415609,1.718417391866973,0.02695073853530272,0.2590187248163074,0.5019085588260241,0.126614746070979,0.049800160155922875,0.04011041508464428
4/21/2000,585.342,55.4101,41247.0743,11.8046,15.4765,5.3118,7.5664,0.27341596145086666,0.014767578452760555,0.9473177343415609,1.718417391866973,0.0,0.2548843582413949,0.5259408216029875,0.126614746070979,0.049834743043723,0.04001375489360399
4/24/2000,585.342,55.4101,41247.0743,11.8046,15.4765,5.1864,7.5664,0.27295486341211994,0.008173183123481254,0.9249536310457983,1.6778493093073663,-0.023607816559358397,0.2626351153958517,0.472237992505961,0.126614746070979,0.0496010230014178,0.040200128404303793
4/25/2000,585.342,55.4101,41247.0743,11.8046,15.4765,5.27,7.5664,0.2675886951292843,-0.012002405291641649,0.9398630332429733,1.7048946976804373,0.016119080672527986,0.2829876326808842,0.5323331007210979,0.126614746070979,0.0495256206318765,0.04002303226207305
4/26/2000,585.342,55.4101,41247.0743,11.8046,15.4765,5.27,7.5664,0.23067582083975524,0.0014945588716079872,0.9398630332429733,1.7048946976804373,0.0,0.22883924823951873,0.5511405445180277,0.126614746070979,0.049078684070507986,0.039955932001632
4/27/2000,585.342,55.4101,41247.0743,11.8046,15.4765,5.3537,7.5664,0.24617676497288232,0.12464793650054706,0.9547902696533029,1.7319724369965384,0.01588235294117646,0.10805944200678863,0.51375576102016,0.09734757001821959,0.04137845763360626,0.03974399269060532
4/28/2000,585.342,55.4101,41247.0743,11.8046,15.4765,5.5489,7.5664,0.29161332371220405,0.19270966690719482,0.9896026537309174,1.7951214777910776,0.036460765451930444,0.0829234972677595,0.544621979734996,0.09734757001821959,0.04009837437613922,0.03989989125855051
5/1/2000,585.342,55.4101,41247.0743,11.8046,15.4765,5.7719,7.5664,0.33066672814459586,0.0882054592401329,1.0,1.8672640807479537,0.040188145398186936,0.22280835557815326,0.570200495116842,0.09734757001821959,0.035917999011133815,0.04006323723935512
5/2/2000,585.342,55.4101,41247.0743,11.8046,15.4765,5.9811,7.5664,0.4058291221060053,0.21746386179339527,1.0,1.9349422535666914,0.03624456418163868,0.15471938529258433,0.6649315221022156,0.0478858992514668,0.030587190947728042,0.04002387226639874
5/3/2000,585.342,55.4101,41247.0743,11.8046,15.4765,5.8556,7.5664,0.38084233363203324,0.1919068056407114,0.9790172376318738,1.894341820064055,-0.02098276236812624,0.15851535295979735,0.6754699705284843,0.0478858992514668,0.030429560663909862,0.039941896301504694
5/4/2000,585.342,55.4101,41247.0743,11.8046,15.4765,6.1623,7.5664,0.46752875616203493,0.17715700983544114,1.0,1.993562162337032,0.05237721155816666,0.24667206150111265,0.7632264156342099,0.05237721155816666,0.031145487746180537,0.04029534737619932
5/5/2000,585.342,55.4101,41247.0743,11.8046,15.4765,6.3435,7.5664,0.47657177440003706,0.20567491445729846,1.0,2.0521820711073726,0.0294046054232997,0.22468482730660067,0.8369917757442373,0.05237721155816666,0.030301267097547067,0.04027199845469036
5/8/2000,585.342,55.4101,41247.0743,11.8046,15.4765,6.468999999999999,7.5664,0.530472224850951,0.24522097094728879,1.0,2.092782504610009,0.019784030897769256,0.22907681492599696,0.9277646988705781,0.05237721155816666,0.03034776518162306,0.03998090047206627
5/9/2000,585.342,55.4101,41247.0743,11.8046,15.4765,6.3714,7.5664,0.48788006165055364,0.17056653122226906,0.9849126603802754,2.0612079842127398,-0.015087339619724638,0.2710768862466586,0.801509882093477,0.05237721155816666,0.027979530383530137,0.039736900959098986
5/10/2000,585.342,55.4101,41247.0743,11.8046,15.4765,6.4132,7.5664,0.5425616355983163,0.25592303066746847,0.9913742464059361,2.074730678399275,0.006560567536177286,0.2282294359858279,0.8423441539787415,0.05237721155816666,0.02714544312965548,0.039601625395706684
5/11/2000,585.342,55.4101,41247.0743,11.8046,15.4765,6.5666,7.5664,0.5847572159474852,0.3088618592528236,1.0,2.124357025007279,0.023919416204079225,0.21079027916067417,0.8714660282717739,0.05237721155816666,0.02655619521746693,0.03963620074845081
5/12/2000,585.342,55.4101,41247.0743,11.8046,15.4765,6.6224,7.5664,0.5770998547307757,0.30151699173632474,1.0,2.142408851218013,0.008497548198458826,0.21173973505086718,0.8292911993812495,0.05237721155816666,0.026554109609374096,0.03954565652494853
5/15/2000,585.342,55.4101,41247.0743,11.8046,15.4765,6.5806,7.5664,0.5723501863710216,0.23922393195068326,0.9936880889103648,2.128886157031477,-0.006311911089635247,0.26881844824926726,0.8533768940460764,0.05237721155816666,0.02301446607858132,0.039423005646948
5/16/2000,585.342,55.4101,41247.0743,11.8046,15.4765,6.2459,7.5664,0.47768997823412507,0.21053752247563162,0.9431474993959894,2.0206075507101033,-0.05086162356016166,0.2206891160318174,0.7319413249036408,0.05237721155816666,0.026272604549429444,0.04016861176825356
5/17/2000,585.342,55.4101,41247.0743,11.8046,15.4765,6.6224,7.5664,0.5667644553799565,0.253406832592032,1.0,2.142408851218013,0.06027954338045749,0.2500047188508654,0.8948753898537869,0.06027954338045749,0.027985910116644537,0.04033091526662157
5/18/2000,585.342,55.4101,41247.0743,11.8046,15.4765,6.8594,7.5664,0.6444273967348311,0.2399971231990028,1.0,2.219080586199088,0.035787629862285675,0.326154203077875,0.9626884889410283,0.06027954338045749,0.027295153149118415,0.040425752711300916
5/19/2000,585.342,55.4101,41247.0743,11.8046,15.4765,6.9291,7.5664,0.6077171164064132,0.23246479036636591,1.0,2.2416291934909904,0.010161238592296673,0.3044730599796679,1.0065736128808065,0.06027954338045749,0.027138781249892455,0.04031449828808151
5/22/2000,585.342,55.4101,41247.0743,11.8046,15.4765,6.957000000000001,7.5664,0.6090013414126463,0.22850270595309663,1.0,2.2506551065963576,0.004026496947655556,0.3097255167739752,1.1170992970390436,0.06027954338045749,0.027055798431976835,0.03958456558916129
5/23/2000,585.342,55.4101,41247.0743,11.8046,15.4765,6.943,7.5664,0.5607508148814206,0.165876138024053,0.9979876383498633,2.2461259745721587,-0.0020123616501367403,0.3386935060928582,1.226033985251683,0.06027954338045749,0.025972428436337566,0.03878965035507584
5/24/2000,585.342,55.4101,41247.0743,11.8046,15.4765,6.8733,7.5664,0.5121108788912112,0.15938840611593874,0.9879689521345407,2.2235773672802566,-0.01003888808872233,0.3042314990512336,1.2235773672802566,0.06027954338045749,0.02650299244062321,0.038800101897053595
5/25/2000,585.342,55.4101,41247.0743,11.8046,15.4765,6.7339,7.5664,0.45049003769520746,0.13516424340333866,0.9679315797038953,2.178480152696451,-0.020281378668179806,0.27777988614800764,1.130509064447749,0.06027954338045749,0.027358459288968268,0.039013486756931524
5/26/2000,585.342,55.4101,41247.0743,11.8046,15.4765,6.6921,7.5664,0.45013868423333636,0.1601152812689608,0.961923242777059,2.1649574585099156,-0.006207398387264473,0.24999533033229349,0.9697130242825607,0.06027954338045749,0.027628888489874204,0.038261815854413274
5/29/2000,585.342,55.4101,41247.0743,11.8046,15.4765,6.6921,7.5664,0.45013868423333636,0.2024139724365086,0.961923242777059,2.1649574585099156,0.0,0.20602281533276878,0.9224648089629415,0.06027954338045749,0.027092165084788733,0.03825180278315307
5/30/2000,585.342,55.4101,41247.0743,11.8046,15.4765,6.943,7.5664,0.4955304254173396,0.24327409800753896,0.9979876383498633,2.2461259745721587,0.03749196814153999,0.20289679308373332,0.7557657293141815,0.06027954338045749,0.026944488669354096,0.034934826431964834
5/31/2000,585.342,55.4101,41247.0743,11.8046,15.4765,7.2498,7.5664,0.5662713072785013,0.29217706915548636,1.0,2.345378667788166,0.04418839118536666,0.21211817224256402,0.8796961290155305,0.06027954338045749,0.02739545862201922,0.034923899960482986
6/1/2000,585.342,55.4101,41247.0743,11.8046,15.4765,7.1522,7.5664,0.5405923532579429,0.2613031771674743,0.9865375596568181,2.3138041473908966,-0.013462440343181892,0.22142905936197832,0.8476840011366866,0.06027954338045749,0.02702290597543803,0.03504554380746206
6/2/2000,585.342,55.4101,41247.0743,11.8046,15.4765,6.8036,7.5664,0.4877110119828567,0.34748097612175277,0.9384534745786092,2.201028759988354,-0.04874024775593511,0.10406828619184405,0.6341844210121781,0.06027954338045749,0.02806711435953895,0.03481599050782869
6/5/2000,585.342,55.4101,41247.0743,11.8046,15.4765,6.7339,7.5664,0.420803882266062,0.33843232408481905,0.928839416259759,2.178480152696451,-0.010244576400729066,0.0615433120517066,0.6014030915576694,0.06027954338045749,0.027681340586882222,0.034894423291412
6/6/2000,585.342,55.4101,41247.0743,11.8046,15.4765,6.9988,7.5664,0.48100810461942145,0.3688977294369087,0.965378355264973,2.264177800782893,0.03933827351163521,0.08189828412428524,0.6754763956717418,0.06027954338045749,0.02858094291161538,0.03506198254298673
6/7/2000,585.342,55.4101,41247.0743,11.8046,15.4765,6.9709,7.5664,0.48820477786554517,0.3602186118998314,0.9615299732406413,2.255151887677526,-0.0039863976681716595,0.09409235018991113,0.685665231900179,0.06027954338045749,0.02830884937390625,0.035018019739533564
6/8/2000,585.342,55.4101,41247.0743,11.8046,15.4765,7.1801,7.5664,0.5374288039056143,0.3732174210954562,0.9903859416811499,2.3228300604962637,0.030010472105467034,0.11958148818062764,0.7659747159230654,0.06027954338045749,0.02884451691422045,0.03495977934175901
6/9/2000,585.342,55.4101,41247.0743,11.8046,15.4765,7.0685,7.5664,0.5362964572918931,0.4272114757661378,0.974992413583823,2.2867264080747955,-0.015542959011712987,0.07643224804312743,0.7150309353390756,0.06027954338045749,0.02888966091944533,0.03509911928697036
6/12/2000,585.342,55.4101,41247.0743,11.8046,15.4765,7.2637,7.5664,0.6028642672727675,0.46135004523688683,1.0,2.3498754488693345,0.027615477116785803,0.09683800434887657,0.7804495428585436,0.06027954338045749,0.02933920890018975,0.03508596815566646
6/13/2000,585.342,55.4101,41247.0743,11.8046,15.4765,7.4171,7.5664,0.6417504094913451,0.4565939173934215,1.0,2.399501795477338,0.02111871360326001,0.127116068443607,0.7756152446614957,0.06027954338045749,0.029429330346880236,0.03506968685469336
6/14/2000,585.342,55.4101,41247.0743,11.8046,15.4765,7.4728,7.5664,0.6850745258980313,0.4084154508760456,1.0,2.417521270745042,0.007509673592104749,0.19643285995613136,0.8131262889724615,0.06027954338045749,0.026375955640597373,0.034946497133876375
6/15/2000,585.342,55.4101,41247.0743,11.8046,15.4765,7.4171,7.5664,0.6570081765783475,0.4794691926187389,0.9925463012525425,2.399501795477338,-0.007453698747457493,0.12000181203189175,0.8118328162786719,0.04418839118536666,0.023794598058281314,0.03495211343656341
6/16/2000,585.342,55.4101,41247.0743,11.8046,15.4765,7.7238,7.5664,0.7201844056925235,0.5276719894879847,1.0,2.4987221377503155,0.0413503930107455,0.12601685278595798,0.8552110104964814,0.04418839118536666,0.024174462789251182,0.03516397786689531
6/19/2000,585.342,55.4101,41247.0743,11.8046,15.4765,7.5147,7.5664,0.6684873109971359,0.5384666622260708,0.9729278334498563,2.431076315874608,-0.02707216655014366,0.08451314023466261,0.7811566721972034,0.04418839118536666,0.02519366887697424,0.03547766145366609
6/20/2000,585.342,55.4101,41247.0743,11.8046,15.4765,7.4868,7.5664,0.6371031225400157,0.5212542639727107,0.96931562184417,2.4220504027692407,-0.0037127230627970187,0.07615351444588159,0.7687164827895769,0.04418839118536666,0.02525243663293661,0.035509401106777486
6/21/2000,585.342,55.4101,41247.0743,11.8046,15.4765,7.5007,7.5664,0.6401425697542202,0.518192950231785,0.9711152541495119,2.4265471838504094,0.001856600951007259,0.08032550770560287,0.8260541435388062,0.04418839118536666,0.025221980953099073,0.03516732176280665
6/22/2000,585.342,55.4101,41247.0743,11.8046,15.4765,7.2079,7.5664,0.600368569462022,0.5260773995870247,0.9332064527823093,2.3318236226586007,-0.03903635660671667,0.048681128424483244,0.7547716428084528,0.04418839118536666,0.02677427625025313,0.03568999107499781
6/23/2000,585.342,55.4101,41247.0743,11.8046,15.4765,7.3752,7.5664,0.6324759838859622,0.49052636238877323,0.9548667754214247,2.385946750347773,0.02321064387685734,0.09523455946776749,0.7197220538170968,0.04418839118536666,0.026596828861375946,0.03546099350692347
6/26/2000,585.342,55.4101,41247.0743,11.8046,15.4765,7.2498,7.5664,0.5997969856786636,0.47673058675552227,0.93863124368834,2.345378667788166,-0.017002928734136113,0.08333706908145411,0.5004967298617435,0.04418839118536666,0.02692010462151783,0.032266952222319414
6/27/2000,585.342,55.4101,41247.0743,11.8046,15.4765,7.3474,7.5664,0.6567975285814147,0.509031050578393,0.9512675108107409,2.3769531881854356,0.013462440343182003,0.09792142974552087,0.4339188134270102,0.04418839118536666,0.026976232612329516,0.031543993540529384
6/28/2000,585.342,55.4101,41247.0743,11.8046,15.4765,7.4589,7.5664,0.6978671097858007,0.5804329516742164,0.9657034102384836,2.4130244896638735,0.015175436208726856,0.07430505545153387,0.5802084657429769,0.04418839118536666,0.02604776504499942,0.029621580206617846
6/29/2000,585.342,55.4101,41247.0743,11.8046,15.4765,7.5286,7.5664,0.7220036596523332,0.6582342177493137,0.9747274657551982,2.435573096955776,0.009344541420316599,0.03845623327540082,0.4534818618838927,0.0413503930107455,0.02440018981692208,0.027311584338999394
6/30/2000,585.342,55.4101,41247.0743,11.8046,15.4765,7.4728,7.5664,0.7092406221408967,0.6359103385178408,0.9675030425438257,2.417521270745042,-0.00741173657784977,0.044825368418109246,0.4784742006964229,0.0413503930107455,0.02424266277698019,0.027090172482696795
7/3/2000,585.342,55.4101,41247.0743,11.8046,15.4765,7.3474,7.5664,0.6859181753516441,0.5611390284757118,0.9512675108107409,2.3769531881854356,-0.016780858580451752,0.07992827326709384,0.48642524782520735,0.0413503930107455,0.02174848990438719,0.027008514297131504
7/4/2000,585.342,55.4101,41247.0743,11.8046,15.4765,7.3474,7.5664,0.680558096980787,0.5402333028362307,0.9512675108107409,2.3769531881854356,0.0,0.09110619403317544,0.4184991408768848,0.0413503930107455,0.021529314414072652,0.026498882156571143
7/5/2000,585.342,55.4101,41247.0743,11.8046,15.4765,6.5945,7.5664,0.5035682528101415,0.595750017100253,0.85378958543722,2.133382938112646,-0.10247162261480258,-0.057767045779276494,0.2529211711283794,0.0413503930107455,0.030420361683183298,0.029771808588111265
7/6/2000,585.342,55.4101,41247.0743,11.8046,15.4765,6.4132,7.5664,0.41306599096617824,0.5359480004406743,0.8303166834977602,2.074730678399275,-0.027492607475926967,-0.0800040166979874,0.27941587200255347,0.0413503930107455,0.030911230888775457,0.029312769511893762
7/7/2000,585.342,55.4101,41247.0743,11.8046,15.4765,6.6921,7.5664,0.5067546269194398,0.6166298914756609,0.8664258525596209,2.1649574585099156,0.04348843011289216,-0.0679656272196767,0.28164320597529446,0.04348843011289216,0.03176961410790434,0.029350882574428847
7/10/2000,585.342,55.4101,41247.0743,11.8046,15.4765,6.7757,7.5664,0.5067490938201871,0.5718606150903955,0.8772495403816774,2.1920028468829864,0.012492341716352051,-0.041423215675178704,0.24934542906663704,0.04348843011289216,0.03179858785836053,0.029041266204160598
7/11/2000,585.342,55.4101,41247.0743,11.8046,15.4765,7.2219,7.5664,0.5214570122400826,0.5302631301746477,0.9350190320826536,2.336352754682799,0.0658529746004104,-0.005754642950562383,0.32143379931201044,0.0658529746004104,0.03452768513248487,0.030068079093731825
7/12/2000,585.342,55.4101,41247.0743,11.8046,15.4765,7.0127,7.5664,0.5498707096603088,0.6392468008928767,0.9079339185375074,2.2686745818640612,-0.02896744623990921,-0.054522657103180494,0.35213250038562394,0.0658529746004104,0.034747327430792944,0.029530532619443953
7/13/2000,585.342,55.4101,41247.0743,11.8046,15.4765,7.1322,7.5664,0.6108865047995482,0.6878147939017505,0.923405577565447,2.3073339587848984,0.017040512213555514,-0.045578631838133044,0.3939062286239179,0.0658529746004104,0.03494053698186044,0.02946930780643921
7/14/2000,585.342,55.4101,41247.0743,11.8046,15.4765,7.0345,7.5664,0.5740305654382314,0.6596406435300171,0.9107563634480438,2.2757270874445994,-0.013698438069599805,-0.05158350298634229,0.327790256516733,0.0658529746004104,0.03501910763911157,0.029320267620993448
7/17/2000,585.342,55.4101,41247.0743,11.8046,15.4765,6.7833,7.5664,0.4166109765266057,0.6130231392531951,0.8782335120018644,2.1944615185532657,-0.035709716397754,-0.12176648799813561,0.31144149717732583,0.0658529746004104,0.03428776450667524,0.02954779559682266
7/18/2000,585.342,55.4101,41247.0743,11.8046,15.4765,7.0345,7.5664,0.48197695240904226,0.5831419723176103,0.9107563634480438,2.2757270874445994,0.03703212300797554,-0.06390141988369458,0.324315674535939,0.0658529746004104,0.03512317934504735,0.029696910686222575
7/19/2000,585.342,55.4101,41247.0743,11.8046,15.4765,6.9089,7.5664,0.43869476489942105,0.5590354420890424,0.894494937724954,2.2350943029989323,-0.017854858198877,-0.0771891863012234,0.3006702059565496,0.0658529746004104,0.03528201806641293,0.029829391229016504
7/20/2000,585.342,55.4101,41247.0743,11.8046,15.4765,6.4762,7.5664,0.38049965893588,0.5988872783083219,0.83847329034931,2.0951117725081687,-0.06262936212711134,-0.13658725185649334,0.24868887860558386,0.0658529746004104,0.037551972974762135,0.030813921166705206
7/21/2000,585.342,55.4101,41247.0743,11.8046,15.4765,6.2669,7.5664,0.2827550915975845,0.47536587862040736,0.8113752298091613,2.027401248746401,-0.032318334825978345,-0.1305512007658265,0.18916508538899435,0.0658529746004104,0.03728667943929225,0.031109614468961735
7/24/2000,585.342,55.4101,41247.0743,11.8046,15.4765,6.0994,7.5664,0.17817268688429588,0.424608846822484,0.7896890131800409,1.973213419171169,-0.026727728222885272,-0.17298513938605053,0.15738140417457314,0.0658529746004104,0.03692368739786368,0.03133586081076227
7/25/2000,585.342,55.4101,41247.0743,11.8046,15.4765,6.0296,7.5664,0.08880782982411795,0.30914803712665684,0.7806520106683239,1.9506324609362364,-0.011443748565432621,-0.16830809125768975,0.12624913611147437,0.0658529746004104,0.036878387033506044,0.03134112331727267
7/26/2000,585.342,55.4101,41247.0743,11.8046,15.4765,6.211,7.5664,0.13005349150322054,0.3368145264000584,0.8041378596027863,2.009317071592637,0.030084914422183973,-0.1546669570188094,0.1193209464938998,0.0658529746004104,0.037536339997910805,0.03123941573365427
7/27/2000,585.342,55.4101,41247.0743,11.8046,15.4765,6.5879,7.5664,0.3258533247464177,0.5011471582675897,0.8529350837670577,2.1312477758726667,0.060682659797134164,-0.11677325074742917,0.1413745906893744,0.0658529746004104,0.04012237374138505,0.03174323200768475
7/28/2000,585.342,55.4101,41247.0743,11.8046,15.4765,6.6995,7.5664,0.30107589528470413,0.46209119863279713,0.8673839301898029,2.167351428294135,0.01694014784680986,-0.11012671678665364,0.12011168514152915,0.0658529746004104,0.040293147173793176,0.03150551100298433
7/31/2000,585.342,55.4101,41247.0743,11.8046,15.4765,6.6018,7.5664,0.26505192963630075,0.43195493044111455,0.8547347160723996,2.1357445569538354,-0.014583177849093132,-0.11655604325018742,0.1274335678666576,0.0658529746004104,0.04034712782475013,0.031439497818899646
8/1/2000,585.342,55.4101,41247.0743,11.8046,15.4765,6.8949,7.5664,0.3247449420715891,0.41168559186888776,0.8926823584246096,2.230565170974734,0.044396982641097926,-0.06158641151972133,0.11888418285380453,0.0658529746004104,0.041649061939052254,0.031250381592373325
8/2/2000,585.342,55.4101,41247.0743,11.8046,15.4765,7.1462,7.5664,0.3878272352986871,0.42690126621611113,0.9252181568657916,2.3118630908090974,0.036447229111372215,-0.027383836459155653,0.12653897690549387,0.0658529746004104,0.04249547520285054,0.031361413964507215
8/3/2000,585.342,55.4101,41247.0743,11.8046,15.4765,7.0345,7.5664,0.36613454517206545,0.2806843781558299,0.9107563634480438,2.2757270874445994,-0.015630684839495146,0.06672226855713093,0.08741691142371333,0.0658529746004104,0.03576321076457366,0.03136183750703985
8/4/2000,585.342,55.4101,41247.0743,11.8046,15.4765,7.2858,7.5664,0.4149382428338382,0.24547502524664,0.9432921618892256,2.357025007278962,0.035723932049186,0.13606311981538077,0.14351633863828983,0.0658529746004104,0.03566804574255392,0.031572695074411815
8/7/2000,585.342,55.4101,41247.0743,11.8046,15.4765,7.3555,7.5664,0.40200899664531864,0.27556038426349483,0.9523162174059401,2.379573614570865,0.009566554118971116,0.09913181213669864,0.1469313291336618,0.0658529746004104,0.0346727276572217,0.03158100831291519
8/8/2000,585.342,55.4101,41247.0743,11.8046,15.4765,7.3276,7.5664,0.39300039921677477,0.28808242875881596,0.9487040058002538,2.370547701465498,-0.003793080008157146,0.08145283882108134,0.11588950141625798,0.0658529746004104,0.03468079186952535,0.03147311722572354
8/9/2000,585.342,55.4101,41247.0743,11.8046,15.4765,7.3974,7.5664,0.40999542543458367,0.3765439158279962,0.9577410083119708,2.39312865970043,0.00952562912822752,0.024301084202218215,0.11702705967625038,0.060682659797134164,0.03173578314110742,0.03147668398151294
8/10/2000,585.342,55.4101,41247.0743,11.8046,15.4765,7.6347,7.5664,0.4590922121356904,0.34021978021978017,0.9884642274528082,2.469897447510595,0.032078838510828156,0.08869622256762733,0.16018296203993554,0.060682659797134164,0.03158917172992864,0.0316792278640978
8/11/2000,585.342,55.4101,41247.0743,11.8046,15.4765,7.6486,7.5664,0.4617486860965123,0.36305781175346397,0.9902638597581501,2.4743942285917635,0.001820634733519455,0.07240402680799751,0.2245793240365681,0.060682659797134164,0.031462130433347765,0.03092464386607802
8/14/2000,585.342,55.4101,41247.0743,11.8046,15.4765,7.7603,7.5664,0.5070884797638466,0.36613454517206545,1.0,2.5105302319562615,0.014603979813299084,0.10317719809510262,0.17182592413626474,0.060682659797134164,0.031280506424803255,0.030101113503596004
8/15/2000,585.342,55.4101,41247.0743,11.8046,15.4765,7.9278,7.5664,0.5396178047075273,0.3173502680027964,1.0,2.5647180615314937,0.021584217105008907,0.16872318782893303,0.15575706329999717,0.060682659797134164,0.030011090673667508,0.029903897134832255
8/16/2000,585.342,55.4101,41247.0743,11.8046,15.4765,7.872000000000001,7.5664,0.5205717597063937,0.35879853196832134,0.9929614773329297,2.54666623532076,-0.007038522667070279,0.11905608074490015,0.13607827856431576,0.060682659797134164,0.029405487011186976,0.029913606781852592
8/17/2000,585.342,55.4101,41247.0743,11.8046,15.4765,8.0953,7.5664,0.526867726664026,0.3030988890775006,1.0,2.6189058911067256,0.028366361788617844,0.1717205343831869,0.16361937616788835,0.060682659797134164,0.029277303209461033,0.03009066781407681
8/18/2000,585.342,55.4101,41247.0743,11.8046,15.4765,8.0674,7.5664,0.509759520913259,0.21197716852250403,0.9965535557669264,2.6098799780013584,-0.003446444233073609,0.24569963867700184,0.16194728503528721,0.060682659797134164,0.024617944116662047,0.030094953747627048
8/21/2000,585.342,55.4101,41247.0743,11.8046,15.4765,8.1232,7.5664,0.5648924078676145,0.20728582712053778,1.0,2.627931804212093,0.0069167265785756715,0.296207056120251,0.18184860256354307,0.060682659797134164,0.02258682953136548,0.030053752509498807
8/22/2000,585.342,55.4101,41247.0743,11.8046,15.4765,8.193,7.5664,0.5741541299210329,0.17190231905777487,1.0,2.650512762447025,0.008592672838290127,0.3432468767419745,0.21667978437458224,0.060682659797134164,0.02074646537564314,0.02991119437552427
8/23/2000,585.342,55.4101,41247.0743,11.8046,15.4765,8.4303,7.5664,0.6197475358810307,0.15849136357523008,1.0,2.72728155025719,0.028963749542292305,0.3981524479235772,0.25973909535123507,0.060682659797134164,0.020098051678490842,0.030053783742775914
8/24/2000,585.342,55.4101,41247.0743,11.8046,15.4765,8.4721,7.5664,0.5937582301817221,0.16840362692351096,1.0,2.7408042444437255,0.004958305161144816,0.3640476573820639,0.2659852662094111,0.060682659797134164,0.019982481231720722,0.030049309816307712
8/25/2000,585.342,55.4101,41247.0743,11.8046,15.4765,8.4721,7.5664,0.5896016661350545,0.23607332495262412,1.0,2.7408042444437255,0.0,0.2860091986824327,0.22023620913149933,0.044396982641097926,0.017260394346019965,0.029749093926754573
8/28/2000,585.342,55.4101,41247.0743,11.8046,15.4765,8.4721,7.5664,0.510932372663718,0.19480311028677422,1.0,2.7408042444437255,0.0,0.26458690947085595,0.16859775442081149,0.044396982641097926,0.01742239624656024,0.029294248400692294
8/29/2000,585.342,55.4101,41247.0743,11.8046,15.4765,8.6955,7.5664,0.582093082493359,0.20115716313089038,1.0,2.8130762511727214,0.02636890499403921,0.3171407797873307,0.21577976007382338,0.044396982641097926,0.016645163902231877,0.029365085075419364
8/30/2000,585.342,55.4101,41247.0743,11.8046,15.4765,8.4582,7.5664,0.5585980688435173,0.270527751160905,0.9727100224253925,2.736307463362557,-0.027289977574607494,0.22673280250620031,0.24319477923452282,0.036447229111372215,0.01729430300364254,0.028869357093866715
8/31/2000,585.342,55.4101,41247.0743,11.8046,15.4765,8.5419,7.5664,0.6324701385570952,0.365733397037745,0.9823356908745904,2.7633852026786583,0.00989572249414783,0.195306596512832,0.2684922556022513,0.035723932049186,0.016193504831733974,0.02882194458062993
9/1/2000,585.342,55.4101,41247.0743,11.8046,15.4765,8.5977,7.5664,0.6879085929677837,0.3810196909908319,0.9887528031740556,2.781437028889392,0.006532504477926304,0.22221906318857054,0.22845344916271348,0.035723932049186,0.015224791033363678,0.028470994837872996
9/4/2000,585.342,55.4101,41247.0743,11.8046,15.4765,8.5977,7.5664,0.6652205070597121,0.4111289729038756,0.9887528031740556,2.781437028889392,0.0,0.18006258749897053,0.23337015306488396,0.032078838510828156,0.01412930242543118,0.028458120174709497
9/5/2000,585.342,55.4101,41247.0743,11.8046,15.4765,8.5977,7.5664,0.6607494688043265,0.4208035541819586,0.9887528031740556,2.781437028889392,0.0,0.16888042961049554,0.19743457612010973,0.032078838510828156,0.014230460283487577,0.02826175104640784
9/6/2000,585.342,55.4101,41247.0743,11.8046,15.4765,8.7652,7.5664,0.6403480864601854,0.3713109385234399,1.0,2.8356248584646244,0.019481954476197272,0.19618974834870895,0.240036782910094,0.032078838510828156,0.01420885206915906,0.028230346169202933
9/7/2000,585.342,55.4101,41247.0743,11.8046,15.4765,8.7513,7.5664,0.7227646757746371,0.4562384345840389,0.9984141833614749,2.8311280773834557,-0.0015858166385250838,0.18302376510665908,0.2047992070157083,0.032078838510828156,0.014380953051372526,0.02807259646907869
9/8/2000,585.342,55.4101,41247.0743,11.8046,15.4765,8.6536,7.5664,0.7035316351037446,0.5029528721603214,0.987267831880619,2.7995212060431567,-0.011164055626021185,0.13345645539444928,0.16670936080139165,0.028963749542292305,0.01386760392919843,0.028037717060785373
9/11/2000,585.342,55.4101,41247.0743,11.8046,15.4765,8.8629,7.5664,0.7887142021029687,0.5436436658661123,1.0,2.867231729804924,0.024186465748359032,0.15876108045916903,0.18602130392891536,0.028963749542292305,0.014374184924238321,0.02816095255279861
9/12/2000,585.342,55.4101,41247.0743,11.8046,15.4765,8.9886,7.5664,0.933198554714384,0.6690252924982794,1.0,2.9078968651936203,0.014182716718004196,0.1582799634034766,0.2118752612206929,0.028963749542292305,0.014363536692921371,0.028162021880581666
9/13/2000,585.342,55.4101,41247.0743,11.8046,15.4765,8.7513,7.5664,0.8118633540372671,0.6413664596273292,0.973599893198051,2.8311280773834557,-0.02640010680194904,0.10387497161886028,0.1330303736502758,0.028963749542292305,0.015701749493411486,0.027984410546484165
9/14/2000,585.342,55.4101,41247.0743,11.8046,15.4765,8.8211,7.5664,0.9495436161513469,0.739783853073132,0.9813652849164497,2.853709035618388,0.007975957857689675,0.12056656504065022,0.17384592864651927,0.028963749542292305,0.015474282899931453,0.027736856414777196
9/15/2000,585.342,55.4101,41247.0743,11.8046,15.4765,8.8211,7.5664,0.8859384687747205,0.7307634746541809,0.9813652849164497,2.853709035618388,0.0,0.08965696144676527,0.17822033445530794,0.028963749542292305,0.014596111264622758,0.027726455476217444
9/18/2000,585.342,55.4101,41247.0743,11.8046,15.4765,8.9188,7.5664,0.8899766899766901,0.7095571095571096,0.992234608281601,2.8853159069586876,0.011075716180521722,0.10553586037632945,0.18906235418027628,0.028963749542292305,0.014559767514666346,0.027744700695634863
9/19/2000,585.342,55.4101,41247.0743,11.8046,15.4765,8.6675,7.5664,0.836723882178428,0.7213816486543763,0.9642769730547583,2.804017987124325,-0.028176436291877716,0.06700561355130974,0.20250003468416589,0.028963749542292305,0.016233266329836456,0.027511208357792943
9/20/2000,585.342,55.4101,41247.0743,11.8046,15.4765,8.8629,7.5664,0.8671708766090127,0.726041249710325,0.986015619785061,2.867231729804924,0.022543986155177276,0.0817649212742586,0.20171656361861356,0.028963749542292305,0.01674169924785183,0.02750355690356401
9/21/2000,585.342,55.4101,41247.0743,11.8046,15.4765,8.5419,7.5664,0.8371257742601512,0.8131237095664143,0.9503037180428543,2.7633852026786583,-0.03621839352807765,0.013237963061812685,0.17822560622362005,0.02636890499403921,0.017864054615381895,0.027836847043934236
9/22/2000,585.342,55.4101,41247.0743,11.8046,15.4765,8.4861,7.5664,0.841641528679008,0.8386032683000932,0.9440958547493492,2.7453333764679244,-0.006532504477926415,0.001652482855490467,0.1549799929226665,0.02636890499403921,0.017905588708071095,0.027829538619532752
9/25/2000,585.342,55.4101,41247.0743,11.8046,15.4765,8.3046,7.5664,0.7444439776498761,0.7796286182413978,0.9239036112409053,2.6866164148684937,-0.021387916710856603,-0.01977077702104535,0.11338132968668324,0.02636890499403921,0.018517283227853315,0.027945667584890855
9/26/2000,585.342,55.4101,41247.0743,11.8046,15.4765,8.6955,7.5664,0.9159413903272005,0.8667180786603501,0.9673920299045456,2.8130762511727214,0.04707029838884447,0.02636890499403921,0.1549956167149269,0.04707029838884447,0.02126255081701458,0.028502167361396092
9/27/2000,585.342,55.4101,41247.0743,11.8046,15.4765,8.8211,7.5664,0.8915192452021012,0.8645866838211642,0.9813652849164497,2.853709035618388,0.014444252774423516,0.014444252774423516,0.18042768440209822,0.04707029838884447,0.020716144228971525,0.02851019087116801
9/28/2000,585.342,55.4101,41247.0743,11.8046,15.4765,8.7094,7.5664,0.8031884057971015,0.7511801242236025,0.9689384331264046,2.8175730322538906,-0.01266281982972639,0.029698990328911767,0.18537169611018856,0.04707029838884447,0.019953232381523665,0.02846870282714733
9/29/2000,585.342,55.4101,41247.0743,11.8046,15.4765,8.6815,7.5664,0.864583333333333,0.8346005154639173,0.965834501479652,2.808547119148523,-0.0032034353686821726,0.01634296819208836,0.18157443449383437,0.04707029838884447,0.01988503270638541,0.02847720000808857
10/2/2000,585.342,55.4101,41247.0743,11.8046,15.4765,8.8629,7.5664,0.8866466568746407,0.8301934989462927,0.986015619785061,2.867231729804924,0.020895006623279366,0.03084545866917887,0.34398362271589966,0.04707029838884447,0.020328325105804085,0.025151051976741723
10/3/2000,585.342,55.4101,41247.0743,11.8046,15.4765,8.8211,7.5664,0.9833839235525577,0.9331534569983138,0.9813652849164497,2.853709035618388,-0.004716289250696781,0.02598369331332795,0.37545998877315534,0.04707029838884447,0.020373399025864998,0.02483801001411481
10/4/2000,585.342,55.4101,41247.0743,11.8046,15.4765,8.4023,7.5664,0.8774830737604185,0.9211449511764573,0.9347729346060566,2.718223286208793,-0.047477072020496225,-0.022727008385963643,0.2555550574558061,0.04707029838884447,0.023003289541868786,0.02522762420752411
10/5/2000,585.342,55.4101,41247.0743,11.8046,15.4765,8.2488,7.5664,0.7559231113097897,0.8658492453753963,0.9176957479473999,2.6685645886577594,-0.01826880735036851,-0.05891479943412592,0.2174092713667961,0.04707029838884447,0.022809913187700034,0.025356610685127005
10/6/2000,585.342,55.4101,41247.0743,11.8046,15.4765,8.4721,7.5664,0.7170855289825697,0.7736724766923389,0.9425383263244553,2.7408042444437255,0.027070604209097127,-0.03190383143075903,0.1731123388581952,0.04707029838884447,0.023715280479014073,0.02426425767332475
10/9/2000,585.342,55.4101,41247.0743,11.8046,15.4765,8.4582,7.5664,0.7794374434603326,0.8205457261271119,0.9409919231025966,2.736307463362557,-0.0016406794065225716,-0.02258019783673859,0.20612602849116612,0.04707029838884447,0.023607521082857172,0.023928643811526738
10/10/2000,585.342,55.4101,41247.0743,11.8046,15.4765,9.0583,7.5664,0.8256076423878429,0.7862267725422225,1.0,2.930445472485523,0.07094890165756307,0.022046959798711407,0.2700569249319984,0.07094890165756307,0.027899560765535125,0.025350953659091593
10/11/2000,585.342,55.4101,41247.0743,11.8046,15.4765,9.4352,7.5664,0.967716371220021,0.874577685088634,1.0,3.0523761767655526,0.04160824878840419,0.04968515675411078,0.3412751439334707,0.07094890165756307,0.029141788630169748,0.025679558433930976
10/12/2000,585.342,55.4101,41247.0743,11.8046,15.4765,9.4073,7.5664,1.0025331545224256,0.8628903505971008,0.9970429879599796,3.0433502636601855,-0.0029570120400204125,0.07496029161381723,0.3868323677266228,0.07094890165756307,0.028410682146805994,0.025168661535778927
10/13/2000,585.342,55.4101,41247.0743,11.8046,15.4765,9.2894,7.5664,0.9774357664388957,0.8777486855269598,0.9845472274037647,3.0052085018278283,-0.012532820256609067,0.05308861706589885,0.320548724145284,0.07094890165756307,0.028612747232103903,0.02494121292726374
10/16/2000,585.342,55.4101,41247.0743,11.8046,15.4765,9.1357,7.5664,0.9979224073831079,0.9291212876700343,0.9682571646599966,2.955485102390735,-0.01654574030615552,0.03566448628855823,0.322308905903979,0.07094890165756307,0.028921336235272273,0.0249226332126231
10/17/2000,585.342,55.4101,41247.0743,11.8046,15.4765,9.4989,7.5664,1.052396179940366,0.9270558748541549,1.0,3.0729837274756564,0.03975612158893149,0.06504238238328042,0.46673975479447827,0.07094890165756307,0.030024330035015544,0.02376968483826523
10/18/2000,585.342,55.4101,41247.0743,11.8046,15.4765,9.443,7.5664,1.0220989742821045,0.8560354611447782,0.9941151080651442,3.054899550321892,-0.005884891934855752,0.08947216613787123,0.5068055976639168,0.07094890165756307,0.0292347159281323,0.023304427895009396
10/19/2000,585.342,55.4101,41247.0743,11.8046,15.4765,9.4291,7.5664,1.2098762538670669,1.077177275710134,0.9926517807325058,3.0504027692407236,-0.0014719898337391957,0.06388428166852833,0.5459061547037414,0.07094890165756307,0.028961655389712713,0.022932756349592468
10/20/2000,585.342,55.4101,41247.0743,11.8046,15.4765,9.7084,7.5664,1.2175422567382364,0.9510963910461399,1.0,3.140758953123483,0.029621066697775866,0.13656212318102523,0.6101233912697357,0.07094890165756307,0.028012494688049987,0.022978012160830678
10/23/2000,585.342,55.4101,41247.0743,11.8046,15.4765,9.5967,7.5664,1.278851633738602,1.0151263297872344,0.9884944996085865,3.1046229497589857,-0.011505500391413515,0.13087283911337355,0.5451135082917404,0.07094890165756307,0.028148709871011094,0.022926172656449306
10/24/2000,585.342,55.4101,41247.0743,11.8046,15.4765,8.9402,7.5664,1.195368710556688,1.0392898362104952,0.9208726463680937,2.8922390087671057,-0.06840893223712308,0.0765358957686102,0.35706370770655305,0.07094890165756307,0.0320557400040815,0.02381919273340674
10/25/2000,585.342,55.4101,41247.0743,11.8046,15.4765,8.2277,7.5664,0.9733061518167647,1.085501858736059,0.8474825923942154,2.661738539678432,-0.0796962036643476,-0.05379794146397543,0.22810657511754617,0.07094890165756307,0.03531137174054821,0.026053617565084206
10/26/2000,585.342,55.4101,41247.0743,11.8046,15.4765,8.4652,7.5664,0.9647673204131364,1.0473714749912961,0.8719459437188414,2.738572029374656,0.02886590420166013,-0.040346442053712184,0.28225635432760754,0.07094890165756307,0.0357848491794625,0.026139377878817247
10/27/2000,585.342,55.4101,41247.0743,11.8046,15.4765,8.549,7.5664,0.9465379448530249,0.9830597235820491,0.8805776441020148,2.7656821196337873,0.00989935264376518,-0.01841688290812238,0.23990195651858626,0.07094890165756307,0.03576669359296406,0.025642310941528246
10/30/2000,585.342,55.4101,41247.0743,11.8046,15.4765,8.6328,7.5664,1.0036671695485664,1.0149704073343386,0.8892093444851881,2.792792209892918,0.009802316060357974,-0.005609629672291727,0.20802664353082756,0.07094890165756307,0.03582588950795129,0.025311839074934304
10/31/2000,585.342,55.4101,41247.0743,11.8046,15.4765,8.8005,7.5664,1.0165669897573384,1.030865470543755,0.9064830456099873,2.8470447413542104,0.019425910480956432,-0.0070405849101310425,0.2510484042931267,0.07094890165756307,0.03578517786142649,0.025273774638844903
11/1/2000,585.342,55.4101,41247.0743,11.8046,15.4765,9.4151,7.5664,1.1037919245637164,0.971063392398275,0.9697890486588935,3.045873637216525,0.06983694108289318,0.06733854054483013,0.2922534244695161,0.07094890165756307,0.038832988641158576,0.026311183284137264
11/2/2000,585.342,55.4101,41247.0743,11.8046,15.4765,9.1776,7.5664,1.1232648528595224,0.9438969091245606,0.9453256973342673,2.9690401475203,-0.025225435736211055,0.09227235399830991,0.24771939365100937,0.07094890165756307,0.03764851368962804,0.02656532140983197
11/3/2000,585.342,55.4101,41247.0743,11.8046,15.4765,9.0519,7.5664,0.949957993149652,0.7769543956399041,0.9323781467595073,2.9283750121316037,-0.01369639121338917,0.09735961594413745,0.2353157923467437,0.07094890165756307,0.03752088516262883,0.026640578116401314
11/6/2000,585.342,55.4101,41247.0743,11.8046,15.4765,8.9122,7.5664,0.9669822772517602,0.8698492573219447,0.917988546001401,2.8831807447187088,-0.015433223964029574,0.051946978907236874,0.2047746505528969,0.07094890165756307,0.037423189423208054,0.02673811064355658
11/7/2000,585.342,55.4101,41247.0743,11.8046,15.4765,8.9122,7.5664,1.0421621869343052,0.9381315735203135,0.917988546001401,2.8831807447187088,0.0,0.05367572296706169,0.16732812029287336,0.07094890165756307,0.037414544034907675,0.026485755347519686
11/8/2000,585.342,55.4101,41247.0743,11.8046,15.4765,9.1357,7.5664,1.1135711641680546,1.0956644456783264,0.9410098471426807,2.955485102390735,0.025077982989609726,0.008544649658324577,0.19442773840964356,0.06983694108289318,0.03448335205004679,0.026633481840791774
11/9/2000,585.342,55.4101,41247.0743,11.8046,15.4765,8.8703,7.5664,1.0721610951479899,1.2041254934940544,0.9136726958098143,2.869625699589143,-0.029050866381339135,-0.05987154485331525,0.14303570738244664,0.06983694108289318,0.033760319527614754,0.026897897184977607
11/10/2000,585.342,55.4101,41247.0743,11.8046,15.4765,8.9122,7.5664,1.0292356383342063,1.1419658917552766,0.917988546001401,2.8831807447187088,0.0047236282876566005,-0.05262934104365746,0.12417064002623679,0.06983694108289318,0.033795419685614274,0.02678841980034249
11/13/2000,585.342,55.4101,41247.0743,11.8046,15.4765,8.7027,7.5664,0.981534187936884,1.1151210182381206,0.8964092950434676,2.815405519070881,-0.02350710262337019,-0.06315800805218852,0.10552591463414629,0.06983694108289318,0.034049981813119266,0.02695996424722702
11/14/2000,585.342,55.4101,41247.0743,11.8046,15.4765,8.996,7.5664,1.0483162184931354,1.0801247751542613,0.9266202463845743,2.9102908349778396,0.03370218437956041,-0.01529165800102883,0.11126209034872092,0.06983694108289318,0.034774630121101095,0.027052505444364
11/15/2000,585.342,55.4101,41247.0743,11.8046,15.4765,9.7783,7.5664,1.3451972658592157,1.2781868329535917,1.0,3.163372262301446,0.08696087149844378,0.029413932139510823,0.21207576170761344,0.08696087149844378,0.038778396319761536,0.029078924641352883
11/16/2000,585.342,55.4101,41247.0743,11.8046,15.4765,9.932,7.5664,1.4141954302382111,1.2953330092367525,1.0,3.21309566173854,0.015718478672161806,0.051784390553849535,0.22267086862320262,0.08696087149844378,0.038842562522562005,0.02911686054811003
11/17/2000,585.342,55.4101,41247.0743,11.8046,15.4765,9.7504,7.5664,1.3463278467609974,1.2690104918663971,0.9817156665324205,3.1543463491960795,-0.018284333467579517,0.03407536244180265,0.1900891004516052,0.08696087149844378,0.03911437277732764,0.029239347392381515
11/20/2000,585.342,55.4101,41247.0743,11.8046,15.4765,9.443,7.5664,1.3755974842767293,1.4423647798742136,0.9507652033830044,3.054899550321892,-0.03152691171644251,-0.027337151332866294,0.12012621140410173,0.08696087149844378,0.03925653971967377,0.029372074762814872
11/21/2000,585.342,55.4101,41247.0743,11.8046,15.4765,9.8202,7.5664,1.5415911796676847,1.4837465707334752,0.9887434554973822,3.176927307431012,0.039944932754421236,0.02328925568164042,0.15912229553475532,0.08696087149844378,0.04013667882185933,0.029752867263166085
11/22/2000,585.342,55.4101,41247.0743,11.8046,15.4765,9.8342,7.5664,1.680202768995966,1.436552927068571,0.9901530406766008,3.18145643945521,0.0014256328791673045,0.09999776291358109,0.16077477839024557,0.08696087149844378,0.03677555862599893,0.029751260572249312
11/23/2000,585.342,55.4101,41247.0743,11.8046,15.4765,9.8342,7.5664,1.9238865433787238,1.4462448712612241,0.9901530406766008,3.18145643945521,0.0,0.19525505305249324,0.16077477839024557,0.08696087149844378,0.03127926707973152,0.029751260572249312
11/24/2000,585.342,55.4101,41247.0743,11.8046,15.4765,10.1694,7.5664,1.9267829390433429,1.4363092154492603,1.0,3.2898968004917344,0.0340851314799373,0.20131833860983805,0.16950146627565998,0.08696087149844378,0.03146532421694116,0.02986550488178315
11/27/2000,585.342,55.4101,41247.0743,11.8046,15.4765,10.2253,7.5664,1.907971447259904,1.4312487557944427,1.0,3.3079809776454985,0.005496882805278602,0.19608141303076398,0.2089215199451422,0.08696087149844378,0.0314753223482569,0.02961510425479227
11/28/2000,585.342,55.4101,41247.0743,11.8046,15.4765,10.1135,7.5664,1.9106947562309329,1.4845449835952338,0.9890663354620401,3.2718126233379703,-0.010933664537959853,0.17152024835511082,0.18398716913098956,0.08696087149844378,0.03177348863494708,0.02965817606332972
11/29/2000,585.342,55.4101,41247.0743,11.8046,15.4765,9.5688,7.5664,1.6893760539629001,1.4734401349072508,0.9357965047480269,3.0955970366536185,-0.05385870371285906,0.08730185784898592,0.11294881189155248,0.08696087149844378,0.0343776556994483,0.03050968380557227
11/30/2000,585.342,55.4101,41247.0743,11.8046,15.4765,9.4849,7.5664,1.6867882839499178,1.6670160330859445,0.9275913665124739,3.0684545954514575,-0.008768079592007316,0.007413622797421082,0.10319038812705728,0.08696087149844378,0.031029438593378457,0.030539664709496876
12/1/2000,585.342,55.4101,41247.0743,11.8046,15.4765,9.932,7.5664,1.7698142673880306,1.559428858274304,0.9713162450001467,3.21309566173854,0.0471380826366119,0.08220013947001403,0.15519266780650653,0.08696087149844378,0.03199742808765711,0.031062406517526824
12/4/2000,585.342,55.4101,41247.0743,11.8046,15.4765,10.2812,7.5664,1.7296429045532986,1.4032656312226202,1.0,3.3260651547992626,0.0351590817559404,0.13580574244081367,0.1729566923743897,0.08696087149844378,0.03240101204157004,0.03126064382602658
12/5/2000,585.342,55.4101,41247.0743,11.8046,15.4765,10.2951,7.5664,1.6935715967661755,1.3317547944847075,1.0,3.330561935880431,0.0013519822588803354,0.1551693184623324,0.1764080765143463,0.08696087149844378,0.03203593393721041,0.031255861450942155
12/6/2000,585.342,55.4101,41247.0743,11.8046,15.4765,10.6444,7.5664,1.8053659436523204,1.348839048045753,1.0,3.4435637798841836,0.03392876222669039,0.1943627836000088,0.2300545437736894,0.08696087149844378,0.0324976766003526,0.03144061459737855
12/7/2000,585.342,55.4101,41247.0743,11.8046,15.4765,10.1555,7.5664,1.6863559411702465,1.4165961273939263,0.9540697455939274,3.2854000194105657,-0.04593025440607257,0.11162800880063917,0.14584391113518147,0.08696087149844378,0.03437967913719524,0.0319434952364977
12/8/2000,585.342,55.4101,41247.0743,11.8046,15.4765,10.1974,7.5664,1.7275256105063255,1.3725626554684784,0.9580060877080907,3.2989550645401313,0.004125843139185736,0.14961162531143257,0.13448145428654068,0.08696087149844378,0.03345726234933994,0.03191011533568578
12/11/2000,585.342,55.4101,41247.0743,11.8046,15.4765,10.6164,7.5664,1.797986453364257,1.348839048045753,0.997369508849724,3.4345055158357867,0.04108890501500384,0.19122102286752996,0.21312262178190666,0.08696087149844378,0.03425491052444815,0.03205661158161107
12/12/2000,585.342,55.4101,41247.0743,11.8046,15.4765,10.798,7.5664,1.8458477189468416,1.2936246474975621,1.0,3.493254828378247,0.017105610188010933,0.24076436048582628,0.2241103717223476,0.08696087149844378,0.03347008473719523,0.03209743416814193
12/13/2000,585.342,55.4101,41247.0743,11.8046,15.4765,10.9377,7.5664,1.947452100568595,1.424209760435474,1.0,3.538449095791142,0.012937581033524603,0.21584037349933283,0.23994739885048344,0.08696087149844378,0.03306561229577844,0.032114628627952856
12/14/2000,585.342,55.4101,41247.0743,11.8046,15.4765,10.5466,7.5664,1.7898106020526927,1.5865781398793777,0.9642429395576767,3.411924557600854,-0.035757060442323296,0.0785719399077549,0.1825133426021439,0.0471380826366119,0.029399978659614592,0.03248634135189411
12/15/2000,585.342,55.4101,41247.0743,11.8046,15.4765,10.6444,7.5664,1.7648510350918203,1.5798072677212396,0.973184490340748,3.4435637798841836,0.009273130677184938,0.07172774869109944,0.2280819152004614,0.0471380826366119,0.02930525105946323,0.03224500824226768
12/18/2000,585.342,55.4101,41247.0743,11.8046,15.4765,11.0634,7.5664,1.9051520403340163,1.5603697284806475,1.0,3.579114231179839,0.03936342114163316,0.13466114210699032,0.2482821649798599,0.0471380826366119,0.02983673218558493,0.032471729133047154
12/19/2000,585.342,55.4101,41247.0743,11.8046,15.4765,11.273,7.5664,1.8864421969018053,1.4178722314684418,1.0,3.6469218077706964,0.018945351338648164,0.19379434501747328,0.319729802502956,0.0471380826366119,0.028632350388302915,0.03211027098588873
12/20/2000,585.342,55.4101,41247.0743,11.8046,15.4765,11.2031,7.5664,2.2502901241731457,1.8490774051293952,0.9937993435642686,3.624308498592734,-0.006200656435731422,0.1408219791857599,0.3201706319746407,0.0471380826366119,0.027888756110183772,0.03210838922683642
12/21/2000,585.342,55.4101,41247.0743,11.8046,15.4765,11.5384,7.5664,2.3475687594290355,1.8531391435534403,1.0,3.732781210572288,0.029929216020565752,0.1732932012771755,0.3893986465332464,0.0471380826366119,0.028311399037531583,0.03208101453747364
12/22/2000,585.342,55.4101,41247.0743,11.8046,15.4765,11.6222,7.5664,2.4698313181071803,1.9360203015375426,1.0,3.759891300831419,0.007262705401095415,0.18181448414716006,0.3365763900868266,0.0471380826366119,0.028252792567631618,0.031642865349467246
12/25/2000,585.342,55.4101,41247.0743,11.8046,15.4765,11.6222,7.5664,2.2039145416953825,1.8034183321847,1.0,3.759891300831419,0.0,0.1428599524062384,0.3175454308419585,0.0471380826366119,0.027674703489680548,0.03162644836280551
12/26/2000,585.342,55.4101,41247.0743,11.8046,15.4765,12.4184,7.5664,2.4766930765139,1.8627061227917916,1.0,4.017469509236195,0.06850682314880152,0.2144778148318387,0.4258617126323283,0.06850682314880152,0.0307746736690223,0.03254047661513414
12/27/2000,585.342,55.4101,41247.0743,11.8046,15.4765,12.5302,7.5664,2.4675116227584684,1.7987325658622981,1.0,4.053637863543723,0.009002770083102574,0.23895782864488058,0.44332200656568577,0.06850682314880152,0.030410182485574845,0.03252011830305642
12/28/2000,585.342,55.4101,41247.0743,11.8046,15.4765,12.614,7.5664,2.4640522875816995,1.6277805239742955,1.0,4.080747953802853,0.0066878421733092,0.31824262185436014,0.42323618680116004,0.06850682314880152,0.026617512905378,0.03246691892420788
12/29/2000,585.342,55.4101,41247.0743,11.8046,15.4765,12.2229,7.5664,2.350483813491955,1.5999561415531374,0.968994767718408,3.954223415612565,-0.03100523228159202,0.288669358664825,0.3856435138474794,0.06850682314880152,0.027959468572862665,0.03277610335954773
1/1/2001,585.342,55.4101,41247.0743,11.8046,15.4765,12.2229,7.5664,2.2877585604002473,1.6715442343384352,0.968994767718408,3.954223415612565,0.0,0.2306584776480063,0.4547088297251942,0.06850682314880152,0.026913880786483227,0.032071532728026514
1/2/2001,585.342,55.4101,41247.0743,11.8046,15.4765,11.9714,7.5664,2.220109207305592,1.7654732764881516,0.9490566037735848,3.8728607938921416,-0.020576131687242816,0.1643971520834142,0.45128988458927366,0.06850682314880152,0.027084861332267042,0.03210154376569103
1/3/2001,585.342,55.4101,41247.0743,11.8046,15.4765,10.9517,7.5664,1.945826720822014,1.769212147295371,0.8682178531790075,3.542978227815341,-0.08517800758474348,0.06377791376480091,0.292678320605281,0.06850682314880152,0.033828687194750136,0.03399682057814116
1/4/2001,585.342,55.4101,41247.0743,11.8046,15.4765,10.365,7.5664,1.7266987609502014,1.8001999316023465,0.8217060409069288,3.3531752450583934,-0.053571591625044546,-0.02624854383525599,0.2254380364616586,0.06850682314880152,0.03525220613961767,0.03477259540987713
1/5/2001,585.342,55.4101,41247.0743,11.8046,15.4765,10.6863,7.5664,1.8009802893688405,1.6618525896414345,0.8471777390201363,3.457118825013749,0.030998552821996928,0.052267244350352016,0.17972467239989842,0.06850682314880152,0.03429749830800392,0.033881674252258985
1/8/2001,585.342,55.4101,41247.0743,11.8046,15.4765,10.9796,7.5664,1.9423303676707042,1.7327151891949835,0.8704296813064848,3.5520041409207077,0.02744635654997518,0.07670582697550343,0.16368492453790062,0.06850682314880152,0.03471092227627858,0.03366901474343857
1/9/2001,585.342,55.4101,41247.0743,11.8046,15.4765,10.812000000000001,7.5664,1.986575327329982,1.9325451632506492,0.8571428571428572,3.497783960402446,-0.015264672665670775,0.018424324629818134,0.1493202087740373,0.06850682314880152,0.03387728252179289,0.03373959083819385
1/10/2001,585.342,55.4101,41247.0743,11.8046,15.4765,10.8818,7.5664,2.076823027115673,2.0531286227274013,0.8626763913112414,3.5203649186373784,0.0064557898631150135,0.007760696425263891,0.17142118974314813,0.06850682314880152,0.033710096840325054,0.033685414065488195
1/11/2001,585.342,55.4101,41247.0743,11.8046,15.4765,10.6444,7.5664,2.057856937661591,2.1421143349612177,0.8438560329792293,3.4435637798841836,-0.02181624363616319,-0.026815509659251946,0.16514333876988063,0.06850682314880152,0.0339427460981093,0.03374142867980251
1/12/2001,585.342,55.4101,41247.0743,11.8046,15.4765,10.4705,7.5664,1.9722096059952308,1.9938117406608376,0.8300697637545583,3.387305489955032,-0.01633722896546541,-0.007215595547380271,0.1022855277979553,0.06850682314880152,0.033197320952186686,0.033494845202842606
1/15/2001,585.342,55.4101,41247.0743,11.8046,15.4765,10.4705,7.5664,2.0444580134915094,2.0950220981623633,0.8300697637545583,3.387305489955032,0.0,-0.01633722896546541,0.10881075929259776,0.06850682314880152,0.03313202417220862,0.033480415714477824
1/16/2001,585.342,55.4101,41247.0743,11.8046,15.4765,10.7221,7.5664,2.1558793230316406,2.256335540838852,0.8500158553987631,3.468700462618485,0.02402941597822461,-0.030849467613934256,0.13712867611967194,0.06850682314880152,0.0323755642937664,0.033589346059477616
1/17/2001,585.342,55.4101,41247.0743,11.8046,15.4765,9.9952,7.5664,1.8261373596855828,2.1874346141883674,0.7923894085936262,3.233541457733493,-0.06779455517109512,-0.11335048345604537,0.029541428041695905,0.06850682314880152,0.03512233247897399,0.03455377699976797
1/18/2001,585.342,55.4101,41247.0743,11.8046,15.4765,9.7296,7.5664,1.7083843669969934,2.1185558401068922,0.7713334390359917,3.1476173530458413,-0.026572754922362773,-0.13152609545572203,0.013848510425458649,0.06850682314880152,0.03543376870535877,0.03469396574563161
1/19/2001,585.342,55.4101,41247.0743,11.8046,15.4765,9.8973,7.5664,1.692483473435077,2.1389319622405396,0.784628190899001,3.201869884507133,0.017236063147508585,-0.14222942522360116,0.10705577056441684,0.06850682314880152,0.03489283657543951,0.03359843134165712
1/22/2001,585.342,55.4101,41247.0743,11.8046,15.4765,10.0651,7.5664,1.801775971495379,2.2352187952343834,0.797930870461392,3.2561547669114552,0.0169541188000768,-0.13397635559532617,0.2233187889689705,0.06850682314880152,0.03514974736454811,0.03196683158590827
1/23/2001,585.342,55.4101,41247.0743,11.8046,15.4765,10.2887,7.5664,1.943918280923632,2.325474262496781,0.815657206278738,3.3284914755265116,0.02221537788993655,-0.1147373130732563,0.2154113310967256,0.06850682314880152,0.03567692116097551,0.031893309257480316
1/24/2001,585.342,55.4101,41247.0743,11.8046,15.4765,10.2887,7.5664,1.943918280923632,2.553291939683539,0.815657206278738,3.3284914755265116,0.0,-0.1714955227726599,0.20349748508597498,0.030998552821996928,0.0314894719563938,0.031886170501504454
1/25/2001,585.342,55.4101,41247.0743,11.8046,15.4765,10.5823,7.5664,2.0644909069848256,2.6285763929109236,0.8389329316632312,3.4234738442625603,0.028536161031033958,-0.1554564172958134,0.22582476137522023,0.030998552821996928,0.032308106665551097,0.03203342417761671
1/26/2001,585.342,55.4101,41247.0743,11.8046,15.4765,10.4844,7.5664,2.124355574097804,2.758977262568168,0.8311717139686063,3.391802271036201,-0.009251296977027645,-0.16882828603139366,0.19134140105675823,0.030998552821996928,0.03214487770787521,0.03201071444907223
