,free_cash_flow_equity,gross_margin,market_cap,net_income_margin,pe,px,roa,Price Momentum 12M,Price Momentum 12M-1M,Price to 52W High,Price to 52W Low,Return 1D,Return 1M,Return 1Q,Max Daily Return over 1M,Realized Volatility 1M,Realized Volatility 3M
6/25/1999,799.0,42.9953,30465.9201,10.3502,21.3584,18.209,8.2686,-0.0985197286994407,-0.11312441209960888,0.885221195916383,1.2907776281278796,-0.0009875459483185134,0.016467567265825434,0.19301578981851542,0.045271854415540824,0.020700779566533777,0.02667157924251645
6/28/1999,799.0,42.9953,30465.9201,10.3502,21.3584,18.172,8.2686,-0.07138842046093319,-0.08457253819817068,0.8834224598930481,1.288154816757638,-0.0020319622164862716,0.014402143574857584,0.20808403137880616,0.045271854415540824,0.020710336534867466,0.026584856333473773
6/29/1999,799.0,42.9953,30465.9201,10.3502,21.3584,17.951,8.2686,-0.08604449875260922,-0.08792831322234085,0.8726786582401556,1.272488835329978,-0.01216156724631301,0.002065423690967849,0.22473903254417693,0.045271854415540824,0.020905390422472196,0.0264022357154605
6/30/1999,799.0,42.9953,30465.9201,10.3502,21.3584,17.434,8.2686,-0.10991984479501704,-0.044008781334558544,0.8475449684005835,1.2358403629403842,-0.028800623920672952,-0.06894526034712956,0.1894657842669032,0.04161627267729506,0.019110778246852363,0.026712365861080577
7/1/1999,799.0,42.9953,30465.9201,10.3502,21.3584,17.711,8.2686,-0.1176705026652719,-0.07816469884920041,0.8610111813320369,1.2554760048203017,0.015888493747848953,-0.04285559878945111,0.18317856904268792,0.04161627267729506,0.01944166779577808,0.026661701179555884
7/2/1999,799.0,42.9953,30465.9201,10.3502,21.3584,17.951,8.2686,-0.10970589693993948,-0.07771660963150329,0.8726786582401556,1.272488835329978,0.0135509005702672,-0.03468487846848778,0.22775459954859456,0.04161627267729506,0.019682031922331547,0.02647950392595265
7/5/1999,799.0,42.9953,30465.9201,10.3502,21.3584,17.951,8.2686,-0.0935211836590416,-0.04418522446094031,0.8726786582401556,1.272488835329978,0.0,-0.051616652578191036,0.22624496208757416,0.04161627267729506,0.01918373697429591,0.026481734419376086
7/6/1999,799.0,42.9953,30465.9201,10.3502,21.3584,17.692,8.2686,-0.08326856313798636,-0.027825275921032122,0.8600875060768108,1.2541291557382859,-0.01442816556180715,-0.05703016735955657,0.2025557368134856,0.04161627267729506,0.01931773800590194,0.02657789711640489
7/7/1999,799.0,42.9953,30465.9201,10.3502,21.3584,17.711,8.2686,-0.08908090315280559,-0.044489019184282164,0.8610111813320369,1.2554760048203017,0.0010739317205514798,-0.04666810205619554,0.25547600482030175,0.04161627267729506,0.019261042972875963,0.025965700767216934
7/8/1999,799.0,42.9953,30465.9201,10.3502,21.3584,17.784000000000002,8.2686,-0.08362961817900749,-0.06935641778739632,0.8645600388915898,1.2606507407669951,0.00412173225678969,-0.015336913792148743,0.2271598123102403,0.04161627267729506,0.018368075933092604,0.02579316211924698
7/9/1999,799.0,42.9953,30465.9201,10.3502,21.3584,18.135,8.2686,-0.05679513184584173,-0.052946377489988095,0.8816237238697132,1.2855320053873964,0.019736842105263053,-0.004063924432972654,0.21597157033659653,0.04161627267729506,0.018810992559206968,0.025670077287915434
7/12/1999,799.0,42.9953,30465.9201,10.3502,21.3584,17.914,8.2686,-0.047786105352681574,-0.03311539892627424,0.8708799222168206,1.2698660239597364,-0.012186379928315394,-0.015173172072567298,0.1315772850735899,0.04161627267729506,0.01899735474556011,0.024639863644841244
7/13/1999,799.0,42.9953,30465.9201,10.3502,21.3584,17.820999999999998,8.2686,-0.05544071659511329,0.004240207770180637,0.8663587749149245,1.2632735521372367,-0.00519147035837908,-0.05942893334037058,0.029104348328232277,0.03849744631775498,0.016365454099028478,0.021682766953024752
7/14/1999,799.0,42.9953,30465.9201,10.3502,21.3584,17.489,8.2686,-0.06230228942147864,0.014851750576376554,0.8502187651920272,1.2397391365988515,-0.018629706526008483,-0.07602493660185972,0.017453022281691766,0.03849744631775498,0.016717678289738917,0.02179620292783415
7/15/1999,799.0,42.9953,30465.9201,10.3502,21.3584,17.784000000000002,8.2686,-0.049238171611868276,0.010959636460839528,0.8645600388915898,1.2606507407669951,0.016867745439991033,-0.059545214172395444,-0.02862136770810564,0.03849744631775498,0.017302175509607703,0.020285446610051175
7/16/1999,799.0,42.9953,30465.9201,10.3502,21.3584,18.117,8.2686,-0.020120071393801675,0.012764346368110857,0.8807486631016043,1.2842560430991705,0.018724696356275272,-0.03246995994659552,0.020273694880891924,0.03849744631775498,0.017835112313537606,0.02005854081877389
7/19/1999,799.0,42.9953,30465.9201,10.3502,21.3584,17.914,8.2686,-0.05412112571941485,-0.010296214161254591,0.8708799222168206,1.2698660239597364,-0.011204945631175134,-0.04428083653435755,0.023598651505628565,0.03849744631775498,0.01795069875738264,0.020024030010039776
7/20/1999,799.0,42.9953,30465.9201,10.3502,21.3584,17.766,8.2686,-0.026787181594083886,0.009586414680909483,0.8636849781234807,1.2593747784787692,-0.008261694763872063,-0.036028214867064645,0.040224837519760914,0.03849744631775498,0.017695654369484205,0.01980735380026933
7/21/1999,799.0,42.9953,30465.9201,10.3502,21.3584,17.6,8.2686,-0.030142723315148556,0.0034165426792305276,0.8556149732620322,1.2476075707095768,-0.009343690194753895,-0.033444999725410374,0.006749799794073974,0.03849744631775498,0.01762719201685205,0.01963032014506453
7/22/1999,799.0,42.9953,30465.9201,10.3502,21.3584,18.061,8.2686,0.01233114735721097,0.05991816602208422,0.8780262518230433,1.2802863826469129,0.026193181818181754,-0.04489687995769431,0.03966152429196401,0.026193181818181754,0.01639357595457553,0.019879593852456055
7/23/1999,799.0,42.9953,30465.9201,10.3502,21.3584,17.526,8.2686,0.0025742234425949473,0.04267490418168318,0.8520175012153621,1.2423619479690933,-0.02962183710757993,-0.03845942832062332,0.0035501603298211393,0.026193181818181754,0.015768020111560713,0.020236067505894968
7/26/1999,799.0,42.9953,30465.9201,10.3502,21.3584,17.766,8.2686,0.0030487804878047697,0.02806007226738938,0.8636849781234807,1.2593747784787692,0.013693940431358964,-0.024328628700093446,-0.021749903639667445,0.026193181818181754,0.01612482251232438,0.019669059386295807
7/27/1999,799.0,42.9953,30465.9201,10.3502,21.3584,17.766,8.2686,-0.007097747722573211,0.015592689878723531,0.8636849781234807,1.2593747784787692,0.0,-0.022342064714946153,-0.0687703113533914,0.026193181818181754,0.016124720198576456,0.01856976991757388
7/28/1999,799.0,42.9953,30465.9201,10.3502,21.3584,17.858,8.2686,0.01339235047100229,0.018669844512541278,0.8681575109382597,1.2658963635074785,0.005178430710345738,-0.005180769873544655,-0.0630640083945434,0.026193181818181754,0.01596514927700895,0.018585878974978192
7/29/1999,799.0,42.9953,30465.9201,10.3502,21.3584,17.674,8.2686,0.028335369756210982,0.014371327165881187,0.859212445308702,1.2528531934500602,-0.010303505431739302,0.01376620396925543,-0.11854770335644105,0.026193181818181754,0.014769498710495847,0.017343970792228006
7/30/1999,799.0,42.9953,30465.9201,10.3502,21.3584,17.6,8.2686,0.00917431192660545,0.015538990825687993,0.8556149732620322,1.2476075707095768,-0.00418694126966157,-0.006267291513748385,-0.09997443109179227,0.026193181818181754,0.014385717064267915,0.017098162401798924
8/2/1999,799.0,42.9953,30465.9201,10.3502,21.3584,18.043,8.2686,0.05428304312258958,0.04890732733434611,0.8771511910549343,1.279010420358687,0.025170454545454524,0.005125062670603198,-0.08675406185149581,0.026193181818181754,0.01514453582609038,0.017364318020403776
8/3/1999,799.0,42.9953,30465.9201,10.3502,21.3584,18.024,8.2686,0.10090398240899101,0.09644515025653555,0.8762275157997084,1.277663571276671,-0.0010530399600952034,0.00406662581471795,-0.11983592147670663,0.026193181818181754,0.015147504417466732,0.016677279446992176
8/4/1999,799.0,42.9953,30465.9201,10.3502,21.3584,18.135,8.2686,0.0652608082706767,0.039238721804511156,0.8816237238697132,1.2855320053873964,0.00615845539280957,0.025039565905494054,-0.11519320843091319,0.026193181818181754,0.014808885602468897,0.01670464870867926
8/5/1999,799.0,42.9953,30465.9201,10.3502,21.3584,18.338,8.2686,0.06251810649516187,0.026189234602236322,0.8914924647544968,1.2999220245268306,0.011193824097049943,0.035401727739822864,-0.09962193744783232,0.026193181818181754,0.014965581115062443,0.016773991382856335
8/6/1999,799.0,42.9953,30465.9201,10.3502,21.3584,18.636,8.2686,0.07523655665820428,0.026078929148396046,0.9059795819154107,1.321046289076345,0.01625040898680319,0.047908232118758276,-0.0800217208866072,0.026193181818181754,0.015291583548042224,0.016914542142894493
8/9/1999,799.0,42.9953,30465.9201,10.3502,21.3584,18.599,8.2686,0.08102295844231344,0.05405405405405417,0.9041808458920758,1.3184234777061032,-0.0019854045932603537,0.02558588365039971,-0.08846304646147818,0.026193181818181754,0.01478230841452324,0.016880208556283534
8/10/1999,799.0,42.9953,30465.9201,10.3502,21.3584,18.209,8.2686,0.09527819548872185,0.07753383458646623,0.885221195916383,1.2907776281278796,-0.020968869294048065,0.016467567265825434,-0.11477880408361696,0.026193181818181754,0.015298391936944962,0.01701471721312025
8/11/1999,799.0,42.9953,30465.9201,10.3502,21.3584,18.785,8.2686,0.1360749924402782,0.07777441790142103,0.9132231404958677,1.3316084213511021,0.031632709099895795,0.05409348521407331,-0.08267408926652986,0.031632709099895795,0.01661988021049789,0.01752341108252767
8/12/1999,799.0,42.9953,30465.9201,10.3502,21.3584,18.432000000000002,8.2686,0.10384477182896168,0.04737094262785968,0.8960622265435101,1.3065853831431204,-0.018791589033803513,0.05391960660986905,-0.07830783078307824,0.031632709099895795,0.0166302746506449,0.017437917543687707
8/13/1999,799.0,42.9953,30465.9201,10.3502,21.3584,18.506,8.2686,0.10351818723911754,0.06046511627906992,0.8996596985901799,1.3118310058836038,0.00401475694444442,0.040598290598290454,-0.05097435897435898,0.031632709099895795,0.01631379128795162,0.01718116480735753
8/16/1999,799.0,42.9953,30465.9201,10.3502,21.3584,18.451,8.2686,0.15376438219109545,0.13287893946973495,0.896985901798736,1.3079322322251363,-0.0029720090781367725,0.018435723353756206,-0.041107992932127635,0.031632709099895795,0.01588457704209472,0.01710881056376826
8/17/1999,799.0,42.9953,30465.9201,10.3502,21.3584,18.729,8.2686,0.20389535257440383,0.1515073600308543,0.9105007292173067,1.3276387608988445,0.015066934041515267,0.04549514346321293,-0.011505779279041506,0.031632709099895795,0.015910633728023052,0.01711309367921646
8/18/1999,799.0,42.9953,30465.9201,10.3502,21.3584,18.729,8.2686,0.27200488997555006,0.2066014669926648,0.9105007292173067,1.3276387608988445,0.0,0.0542046605876394,-0.003723602319272268,0.031632709099895795,0.015739167328022413,0.017084155758497116
8/19/1999,799.0,42.9953,30465.9201,10.3502,21.3584,18.803,8.2686,0.24638737902691266,0.1666445711255471,0.9140982012639767,1.332884383639328,0.0039510918895830915,0.06835227272727273,0.0031476739223219585,0.031632709099895795,0.015498814869045448,0.017086586426918553
8/20/1999,799.0,42.9953,30465.9201,10.3502,21.3584,19.49,8.2686,0.30446422595542466,0.2088213640318588,0.9474963539134661,1.3815836109732755,0.03653672286337284,0.07912075743314317,0.04085447263017339,0.03653672286337284,0.016401861789320602,0.017688171789704443
8/23/1999,799.0,42.9953,30465.9201,10.3502,21.3584,19.899,8.2686,0.2971968709256845,0.14250325945241205,0.967379679144385,1.4105763096335153,0.02098512057465385,0.1353988360150633,0.08076254616554435,0.03653672286337284,0.014901009777711147,0.017724116148311396
8/24/1999,799.0,42.9953,30465.9201,10.3502,21.3584,19.249000000000002,8.2686,0.260823999475994,0.1636863823933974,0.9357802625182305,1.3644998936698094,-0.03266495803809233,0.0834740515591581,0.07452271966060064,0.03653672286337284,0.0170147176895827,0.017882889455850915
8/25/1999,799.0,42.9953,30465.9201,10.3502,21.3584,18.989,8.2686,0.2437938036287417,0.1636863823933974,0.9231404958677686,1.346069327284327,-0.013507195178970366,0.06883935607339886,0.060008931561906786,0.03653672286337284,0.017422418745119427,0.017979413383976215
8/26/1999,799.0,42.9953,30465.9201,10.3502,21.3584,18.674,8.2686,0.17973340072019695,0.12818244993366612,0.9078269324258629,1.323739987240377,-0.01658855126652281,0.045693806697278516,0.04242491905772017,0.03653672286337284,0.01794591582909575,0.018116489120875292
8/27/1999,799.0,42.9953,30465.9201,10.3502,21.3584,18.692,8.2686,0.1973608353084364,0.132150406764461,0.9087019931939718,1.3250159495286027,0.0009639070365214941,0.057598732601561675,-0.0017623497997329984,0.03653672286337284,0.017717783791413783,0.01719985763481198
8/30/1999,799.0,42.9953,30465.9201,10.3502,21.3584,18.247,8.2686,0.2469760131210279,0.20276088293583006,0.8870685464268352,1.2934713262919117,-0.023806976246522615,0.03676136363636351,-0.01388888888888895,0.03653672286337284,0.018600992788961726,0.017399377507502593
8/31/1999,799.0,42.9953,30465.9201,10.3502,21.3584,17.838,8.2686,0.17254979294024864,0.18602511010320133,0.8671852211959165,1.2644786276316722,-0.022414643503041565,-0.01136174693787051,-0.0407614540761454,0.03653672286337284,0.018520767721823737,0.017612105401469173
9/1/1999,799.0,42.9953,30465.9201,10.3502,21.3584,18.172,8.2686,0.16271034615138524,0.15324077036278716,0.8834224598930481,1.288154816757638,0.018724072205404063,0.008211273857079426,-0.0399408284023669,0.03653672286337284,0.018981965464399356,0.01762708293043172
9/2/1999,799.0,42.9953,30465.9201,10.3502,21.3584,18.525,8.2686,0.15449333167144452,0.1301882088994144,0.9005833738454059,1.3131778549656197,0.01942548976447278,0.02150537634408578,-0.01263191557403276,0.03653672286337284,0.019393890959502193,0.01777092638691685
9/3/1999,799.0,42.9953,30465.9201,10.3502,21.3584,18.766,8.2686,0.18967921896792173,0.1625459617091416,0.9122994652406416,1.330261572269086,0.013009446693657223,0.023339513578361615,0.010119496178275345,0.03653672286337284,0.019444686287142247,0.017801276614653614
9/6/1999,799.0,42.9953,30465.9201,10.3502,21.3584,18.766,8.2686,0.22485477449252644,0.21636968866261985,0.9122994652406416,1.330261572269086,0.0,0.0069757458682120355,0.03903438347821253,0.03653672286337284,0.01914005809539079,0.01743310604464274
9/7/1999,799.0,42.9953,30465.9201,10.3502,21.3584,18.785,8.2686,0.2437102754237288,0.2313956567796609,0.9132231404958677,1.3316084213511021,0.0010124693594799616,0.010000537663315212,0.031632709099895795,0.03653672286337284,0.01913173081634461,0.017407150267877397
9/8/1999,799.0,42.9953,30465.9201,10.3502,21.3584,18.896,8.2686,0.2525520349993373,0.2070131247514253,0.9186193485658727,1.3394768554618275,0.005908969922810758,0.03772859574935472,0.03881253435953824,0.03653672286337284,0.018501960113170894,0.017418319781455752
9/9/1999,799.0,42.9953,30465.9201,10.3502,21.3584,18.692,8.2686,0.24050968940801698,0.24668170958322277,0.9087019931939718,1.3250159495286027,-0.01079593564775616,-0.004950758583976533,-0.013458595028236653,0.03653672286337284,0.017378502537609947,0.016670762530948107
9/10/1999,799.0,42.9953,30465.9201,10.3502,21.3584,19.045,8.2686,0.23861862643080145,0.19875130072840808,0.9258629071463297,1.3500389877365846,0.018885084528140528,0.0332573784722221,0.006181318681318659,0.03653672286337284,0.01729616199540636,0.016840413308255964
9/13/1999,799.0,42.9953,30465.9201,10.3502,21.3584,19.23,8.2686,0.25211616095845835,0.2049746060684987,0.9348565872630044,1.3631530445877933,0.009713835652402247,0.039122446774019215,0.01692226335272351,0.03653672286337284,0.017378784294229097,0.016881827742188157
9/14/1999,799.0,42.9953,30465.9201,10.3502,21.3584,18.822,8.2686,0.23431044658666123,0.2099809823594989,0.9150218765192026,1.334231232721344,-0.02121684867394702,0.020107311256842397,0.005180240320427076,0.03653672286337284,0.018080248159798522,0.017053721544523417
9/15/1999,799.0,42.9953,30465.9201,10.3502,21.3584,18.692,8.2686,0.15969723290730875,0.16199280307730501,0.9087019931939718,1.3250159495286027,-0.00690681117840819,-0.0019755459447914347,-0.0027742210840802084,0.03653672286337284,0.01786635503323357,0.017076992528072862
9/16/1999,799.0,42.9953,30465.9201,10.3502,21.3584,18.562,8.2686,0.1312774256460263,0.14145538761579712,0.9023821098687409,1.3158006663358617,-0.006954846993366126,-0.008916653318383205,0.007162235485621338,0.03653672286337284,0.017931820483614223,0.016965305109554577
9/17/1999,799.0,42.9953,30465.9201,10.3502,21.3584,18.469,8.2686,0.1681846932321316,0.18931056293485127,0.897860962566845,1.3092081945133622,-0.005010235965951959,-0.017763122905919193,0.01427865341314738,0.03653672286337284,0.017932891085896286,0.016906725680706586
9/20/1999,799.0,42.9953,30465.9201,10.3502,21.3584,18.729,8.2686,0.23705416116248346,0.28731836195508564,0.9105007292173067,1.3276387608988445,0.014077643619037294,-0.03904566444330426,-0.009571655208884255,0.02098512057465385,0.01618572412658973,0.016286960714450193
9/21/1999,799.0,42.9953,30465.9201,10.3502,21.3584,18.302,8.2686,0.1973830552829572,0.3018645731108931,0.889742343218279,1.2973700999503792,-0.022798868065566746,-0.08025528921051317,0.004114774784660158,0.01942548976447278,0.01592595564500511,0.015892507213575546
9/22/1999,799.0,42.9953,30465.9201,10.3502,21.3584,18.005,8.2686,0.1779522407589138,0.2593392214589467,0.8753038405444822,1.276316722194655,-0.016227734673806227,-0.06462673385630435,-0.011203251139546455,0.01942548976447278,0.014803564758581647,0.01602613902766616
9/23/1999,799.0,42.9953,30465.9201,10.3502,21.3584,17.634,8.2686,0.14954367666232082,0.23787483702737955,0.8572678658240156,1.2500177216984476,-0.020605387392390928,-0.07135710147980412,-0.029605987233105924,0.01942548976447278,0.015131160893760516,0.016232648506011426
9/24/1999,799.0,42.9953,30465.9201,10.3502,21.3584,17.355999999999998,8.2686,0.1092222151211093,0.1934556144947912,0.8437530384054447,1.2303111930247392,-0.015764999432913762,-0.07057941522973121,-0.033145785750097634,0.01942548976447278,0.015096323692188529,0.0162812245574743
9/27/1999,799.0,42.9953,30465.9201,10.3502,21.3584,17.523,8.2686,0.1477696993515425,0.22434007991091898,0.8518716577540106,1.2421492875877223,0.009622032726434693,-0.06254012411726939,0.00510496730526544,0.01942548976447278,0.015336933315464502,0.01591591309754681
9/28/1999,799.0,42.9953,30465.9201,10.3502,21.3584,17.096,8.2686,0.04422184216955771,0.11452479843635466,0.831113271754983,1.211880626639257,-0.024367973520515895,-0.06307886227873072,-0.03472418271130928,0.01942548976447278,0.015375503741249439,0.016083340173053778
9/29/1999,799.0,42.9953,30465.9201,10.3502,21.3584,17.3,8.2686,0.07936111804342416,0.11292737709009248,0.8410306271268838,1.2263415325724818,0.01193261581656535,-0.03016033187577083,-0.036265389114812585,0.01942548976447278,0.015028255866485096,0.016061923025628012
9/30/1999,799.0,42.9953,30465.9201,10.3502,21.3584,17.82,8.2686,0.1322912695386962,0.15465751683822604,0.8663101604278075,1.2632026653434465,0.030057803468207966,-0.01937046004842613,-0.007297643585315594,0.030057803468207966,0.015959826795516507,0.016515795798466255
10/1/1999,799.0,42.9953,30465.9201,10.3502,21.3584,17.764,8.2686,0.13791557235282825,0.18666325027224384,0.8635877491492464,1.2592330048911886,-0.003142536475869817,-0.04107962213225369,0.004069635993669385,0.030057803468207966,0.015274237022227162,0.01641749321929137
10/4/1999,799.0,42.9953,30465.9201,10.3502,21.3584,18.117,8.2686,0.042045323823766356,0.07937420913378568,0.8807486631016043,1.2842560430991705,0.01987165052916029,-0.034583821805392545,0.02292360679803518,0.030057803468207966,0.01567689851856277,0.016603453092246118
10/5/1999,799.0,42.9953,30465.9201,10.3502,21.3584,17.764,8.2686,0.019630352427964626,0.07714384112042239,0.8635877491492464,1.2592330048911886,-0.01948446210741306,-0.053394436747308927,-0.0011246063877644596,0.030057803468207966,0.0161495666127688,0.016785662625880816
10/6/1999,799.0,42.9953,30465.9201,10.3502,21.3584,17.615,8.2686,-0.0014172335600908248,0.06490929705215409,0.8563441905687894,1.2486708726164313,-0.008387750506642755,-0.06228373702422152,-0.028673835125448188,0.030057803468207966,0.016178015724268403,0.016628806614173257
10/7/1999,799.0,42.9953,30465.9201,10.3502,21.3584,18.227999999999998,8.2686,0.0527896499942242,0.09137114473836205,0.886144871171609,1.2921244772098956,0.03479988646040311,-0.03535139712108393,0.01752819024226837,0.03479988646040311,0.018083710990351363,0.0171342718424619
10/8/1999,799.0,42.9953,30465.9201,10.3502,21.3584,18.469,8.2686,0.1013118664281456,0.11460942158616572,0.897860962566845,1.3092081945133622,0.013221417599297958,-0.01193023753477418,0.036361595870041175,0.03479988646040311,0.01822910193727333,0.01719394486624486
10/11/1999,799.0,42.9953,30465.9201,10.3502,21.3584,18.061,8.2686,0.1007435397367138,0.1607142857142858,0.8780262518230433,1.2802863826469129,-0.022091071525258577,-0.051667104226831295,0.03270627251415181,0.03479988646040311,0.018253107547376735,0.017262143103053417
10/12/1999,799.0,42.9953,30465.9201,10.3502,21.3584,17.801,8.2686,0.09336035870032555,0.18113138013635544,0.8653864851725813,1.2618558162614302,-0.014395659155085672,-0.07431097243889762,0.0009559154295994965,0.03479988646040311,0.018213570755004273,0.017237974089185485
10/13/1999,799.0,42.9953,30465.9201,10.3502,21.3584,17.355999999999998,8.2686,0.08164028418297398,0.1730026174747601,0.8437530384054447,1.2303111930247392,-0.02499859558451778,-0.07788757836574223,-0.04200474692277989,0.03479988646040311,0.01841494913793111,0.017358283296793155
10/14/1999,799.0,42.9953,30465.9201,10.3502,21.3584,17.262999999999998,8.2686,0.10194050810672795,0.19315715562364377,0.8392318911035488,1.2237187212022398,-0.00535837750633783,-0.07644981810400187,-0.03634029250865267,0.03479988646040311,0.018404534619846227,0.017315884061529303
10/15/1999,799.0,42.9953,30465.9201,10.3502,21.3584,16.929000000000002,8.2686,0.09587001553599173,0.20157949249093732,0.8229946524064172,1.2000425320762742,-0.01934773793662725,-0.08797543368171523,-0.04711246200607877,0.03479988646040311,0.01871293949442695,0.017452442586913183
10/18/1999,799.0,42.9953,30465.9201,10.3502,21.3584,17.355999999999998,8.2686,0.08285500374344901,0.15229598203144512,0.8437530384054447,1.2303111930247392,0.025222990135270518,-0.06026314364610985,-0.013863636363636522,0.03479988646040311,0.019780777226190007,0.0177150203526742
10/19/1999,799.0,42.9953,30465.9201,10.3502,21.3584,17.133,8.2686,0.03391467020698813,0.13022750588377296,0.8329120077783179,1.2145034380094988,-0.012848582622724036,-0.08521544129424952,-0.05138142959968994,0.03479988646040311,0.01950487807646753,0.01746263604685486
10/20/1999,799.0,42.9953,30465.9201,10.3502,21.3584,16.929000000000002,8.2686,-0.0066306771505691975,0.0739349841567889,0.8229946524064172,1.2000425320762742,-0.011906846436700924,-0.07501912359304985,-0.034063676823005706,0.03479988646040311,0.019122511473632794,0.01712863545425328
10/21/1999,799.0,42.9953,30465.9201,10.3502,21.3584,16.965999999999998,8.2686,-0.013891310665504308,0.04649811101424017,0.8247933884297519,1.2026653434465155,0.002185598676826439,-0.05770619272424338,-0.045029832263874914,0.03479988646040311,0.018932539165480697,0.017036960378692106
10/22/1999,799.0,42.9953,30465.9201,10.3502,21.3584,17.059,8.2686,-0.012617931353823053,0.0206633096023614,0.829314535731648,1.2092578152690154,0.005481551337970236,-0.03260746285584659,-0.03979511426319926,0.03479988646040311,0.018547882241666185,0.01705400359805833
10/25/1999,799.0,42.9953,30465.9201,10.3502,21.3584,17.3,8.2686,-0.03707002115106295,-0.033953022375598274,0.8410306271268838,1.2263415325724818,0.01412744006096478,-0.0032265498962893435,-0.03124650016799191,0.03479988646040311,0.018538511098577015,0.017139134114787524
10/26/1999,799.0,42.9953,30465.9201,10.3502,21.3584,17.374000000000002,8.2686,-0.03073919107391898,-0.022426778242677914,0.8446280991735539,1.2315871553129654,0.0042774566473988695,-0.008503110198025299,-0.016974086228357832,0.03479988646040311,0.01843634890821311,0.017101093782880456
10/27/1999,799.0,42.9953,30465.9201,10.3502,21.3584,17.56,8.2686,0.002054325496461784,-0.024423647569048246,0.8536703937773455,1.244772098957964,0.010705652123863096,0.027140851661207277,-0.002272727272727426,0.03479988646040311,0.017716404536003972,0.017146952389112097
10/28/1999,799.0,42.9953,30465.9201,10.3502,21.3584,17.783,8.2686,0.04183021852481095,0.013533305993321143,0.8645114244044726,1.2605798539732047,0.012699316628701718,0.027919075144508643,-0.014410020506567589,0.03479988646040311,0.017739915746363223,0.016923484329508427
10/29/1999,799.0,42.9953,30465.9201,10.3502,21.3584,18.005,8.2686,0.06506950606329465,0.054125998225377,0.8753038405444822,1.276316722194655,0.012483832874093048,0.010381593714926973,-0.001054150022192779,0.03479988646040311,0.016707969119420893,0.01699683258328812
11/1/1999,799.0,42.9953,30465.9201,10.3502,21.3584,17.745,8.2686,0.04296461737392754,0.04408134477489134,0.8626640738940204,1.2578861558091727,-0.014440433212996262,-0.0010695789236657705,-0.021505376344086002,0.03479988646040311,0.01701441859467569,0.017076840948628373
11/2/1999,799.0,42.9953,30465.9201,10.3502,21.3584,17.541,8.2686,0.018996165911467244,0.05245730219588696,0.8527467185221196,1.243425249875948,-0.011496196111580814,-0.03179334326875316,-0.04346166430363185,0.03479988646040311,0.016561496638512446,0.017071897420103923
11/3/1999,799.0,42.9953,30465.9201,10.3502,21.3584,17.727,8.2686,0.006358217428328317,0.008458699971615191,0.8617890131259115,1.256610193520947,0.010603728407730495,-0.0020828642197702196,-0.048776561493882764,0.03479988646040311,0.016217316552249027,0.01699686478761453
11/4/1999,799.0,42.9953,30465.9201,10.3502,21.3584,17.930999999999997,8.2686,0.01690013043724825,-0.0010208132478874976,0.8717063684978122,1.2710710994541714,0.011507869351836009,0.017939256315639973,-0.0359159094574979,0.03479988646040311,0.01628225385000502,0.01706466523713527
11/5/1999,799.0,42.9953,30465.9201,10.3502,21.3584,17.894000000000002,8.2686,0.007488317099262565,0.026293564551545412,0.8699076324744774,1.26844828808393,-0.0020634655066641416,-0.018323458415624105,-0.01729913778900527,0.025222990135270518,0.014322165833942815,0.016862824938551648
11/8/1999,799.0,42.9953,30465.9201,10.3502,21.3584,17.54,8.2686,-0.012442993074714304,0.039862620347953515,0.8526981040350023,1.2433543630821577,-0.019783167542193114,-0.05030050354648341,-0.06627628426936394,0.025222990135270518,0.014518161548685245,0.016541574835743797
11/9/1999,799.0,42.9953,30465.9201,10.3502,21.3584,17.54,8.2686,-0.014440636062257761,0.014833960779906619,0.8526981040350023,1.2433543630821577,0.0,-0.02884668622999842,-0.04839409722222243,0.025222990135270518,0.013799080140282381,0.016383396413136984
11/10/1999,799.0,42.9953,30465.9201,10.3502,21.3584,17.615,8.2686,-0.03394757047274344,-0.02374684655040049,0.8563441905687894,1.2486708726164313,0.004275940706955472,-0.010448851188135544,-0.04814654706581656,0.025222990135270518,0.013511778737928196,0.01638463017159513
11/11/1999,799.0,42.9953,30465.9201,10.3502,21.3584,17.653,8.2686,-0.01916879653294823,-0.035670630070007925,0.8581915410792416,1.2513645707804635,0.0021572523417541234,0.01711223784282101,-0.04324968836377441,0.025222990135270518,0.012284948648014583,0.0163856545607866
11/12/1999,799.0,42.9953,30465.9201,10.3502,21.3584,17.709,8.2686,-0.023921071487626122,-0.0485035550901175,0.8609139523578025,1.2553342312327211,0.0031722653373364995,0.025835602154897774,-0.054460996315873755,0.025222990135270518,0.012209152222090437,0.016270701710455703
11/15/1999,799.0,42.9953,30465.9201,10.3502,21.3584,17.97,8.2686,-0.00953535798930727,-0.06691285895386645,0.8736023334953815,1.2738356844119938,0.014738268676943944,0.06149211412369282,-0.04052538843504727,0.025222990135270518,0.011578269303749151,0.016387317102035705
11/16/1999,799.0,42.9953,30465.9201,10.3502,21.3584,17.914,8.2686,-0.009674387749461055,-0.04052186411631398,0.8708799222168206,1.2698660239597364,-0.0031163049526987674,0.032150265038027426,-0.04727968941126415,0.014738268676943944,0.010443428329793345,0.01638037420986572
11/17/1999,799.0,42.9953,30465.9201,10.3502,21.3584,18.082,8.2686,0.013906022204777546,-0.03930694179656835,0.8790471560525037,1.2817750053165096,0.009378140002232804,0.05539018268837914,-0.07224217547460221,0.014738268676943944,0.010028191187181502,0.015730781507845272
11/18/1999,799.0,42.9953,30465.9201,10.3502,21.3584,17.914,8.2686,0.010719927781539296,-0.044854434664861054,0.8708799222168206,1.2698660239597364,-0.009291007631899051,0.058184180991198486,-0.09975375647017437,0.014738268676943944,0.009853469854793982,0.015507079987143568
11/19/1999,799.0,42.9953,30465.9201,10.3502,21.3584,17.97,8.2686,0.025450810317279027,-0.031842045195161095,0.8736023334953815,1.2738356844119938,0.0031260466674107867,0.059177177885182175,-0.06644501013039661,0.014738268676943944,0.009852946791888455,0.014995901586127973
11/22/1999,799.0,42.9953,30465.9201,10.3502,21.3584,17.746,8.2686,0.025483964172204443,-0.0142155446402773,0.8627126883811375,1.257957042602963,-0.012465219810795736,0.04027199718623575,-0.06545894991837387,0.014738268676943944,0.01037225320259807,0.014982430962724412
11/23/1999,799.0,42.9953,30465.9201,10.3502,21.3584,17.298,8.2686,-0.006718346253229979,-0.006603502727533628,0.8409333981526494,1.226199758984901,-0.025245125662121115,-0.00011560693641632369,-0.07368533790296672,0.014738268676943944,0.01154949443651834,0.01516660404037999
11/24/1999,799.0,42.9953,30465.9201,10.3502,21.3584,17.465999999999998,8.2686,-0.02755971271087365,-0.03268192194198516,0.8491006319883324,1.2381087403416742,0.009712105445716324,0.005295268792448127,-0.06558955702974545,0.014738268676943944,0.011708553239501178,0.015225747180666825
11/25/1999,799.0,42.9953,30465.9201,10.3502,21.3584,17.465999999999998,8.2686,0.0039662010691496885,0.00936943151117986,0.8491006319883324,1.2381087403416742,0.0,-0.005353075170842936,-0.042801556420233644,0.014738268676943944,0.011464130268558002,0.014942412580863393
11/26/1999,799.0,42.9953,30465.9201,10.3502,21.3584,17.279,8.2686,0.023273717872793975,0.053120928579888815,0.8400097228974234,1.224852909902885,-0.010706515515859216,-0.028341674633076575,-0.0313375939006616,0.014738268676943944,0.0112844490620421,0.01473793205599535
11/29/1999,799.0,42.9953,30465.9201,10.3502,21.3584,17.111,8.2686,0.00783366709859834,0.06049004594180718,0.8318424890617404,1.2129439285461119,-0.009722784883384405,-0.049652874201610575,-0.058386528725511755,0.014738268676943944,0.010963396065814679,0.014577512887733204
11/30/1999,799.0,42.9953,30465.9201,10.3502,21.3584,17.503,8.2686,0.050095992320614346,0.06461483081353503,0.8508993680116674,1.240731551711916,0.022909239670387382,-0.013637644406875205,-0.05516869095816457,0.022909239670387382,0.011896303918910535,0.014662027853660749
12/1/1999,799.0,42.9953,30465.9201,10.3502,21.3584,17.279,8.2686,0.04234783133256914,0.05815286239971029,0.8400097228974234,1.224852909902885,-0.0127978060903845,-0.014936434638846197,-0.07923904934455928,0.022909239670387382,0.01195921345331054,0.01463061526060753
12/2/1999,799.0,42.9953,30465.9201,10.3502,21.3584,17.634,8.2686,0.08523601452397056,0.09095944365807118,0.8572678658240156,1.2500177216984476,0.02054517043810411,-0.005246234557454765,-0.06032185868059248,0.022909239670387382,0.012606151111177742,0.014884660444991241
12/3/1999,799.0,42.9953,30465.9201,10.3502,21.3584,18.026,8.2686,0.11436696340257191,0.10849406528189909,0.8763247447739426,1.2778053448642517,0.022229783373029388,0.005298087111706096,-0.040404578120841084,0.022909239670387382,0.013300950179662261,0.015165512377090289
12/6/1999,799.0,42.9953,30465.9201,10.3502,21.3584,17.465999999999998,8.2686,0.041068128986111674,0.06657924539548188,0.8491006319883324,1.2381087403416742,-0.031066237656718232,-0.0239186319436685,-0.07567739204064372,0.022909239670387382,0.014964264992991411,0.015620503626412156
12/7/1999,799.0,42.9953,30465.9201,10.3502,21.3584,16.999000000000002,8.2686,0.04384402824685307,0.07706478354313773,0.8263976665046184,1.2050046076415963,-0.026737661742814334,-0.03084378563283907,-0.09057350738283743,0.022909239670387382,0.015468148082782648,0.015906151200857088
12/8/1999,799.0,42.9953,30465.9201,10.3502,21.3584,17.073,8.2686,0.036737915958221956,0.06509594364828764,0.8299951385512883,1.2102502303820797,0.004353197246896867,-0.02662485746864307,-0.1035442373326333,0.022909239670387382,0.015516609704834752,0.015711694048576072
12/9/1999,799.0,42.9953,30465.9201,10.3502,21.3584,16.756,8.2686,0.03234551167518962,0.08526892982564238,0.8145843461351483,1.1877791167505494,-0.018567328530428195,-0.04876525688333799,-0.128653146125845,0.022909239670387382,0.01591148132056274,0.015786716586934594
12/10/1999,799.0,42.9953,30465.9201,10.3502,21.3584,17.055,8.2686,0.006729236762883062,0.04202821557169001,0.8291200777831793,1.208974268093854,0.017844354261160156,-0.03387526199512825,-0.09387950270959511,0.022909239670387382,0.016486906220046966,0.01578929742835735
12/13/1999,799.0,42.9953,30465.9201,10.3502,21.3584,17.167,8.2686,0.003624671148787062,0.03531131248173036,0.8345649003403015,1.2169135889983695,0.006566989152741343,-0.030605906601163135,-0.08158570511448737,0.022909239670387382,0.016551625413424417,0.015805311184538547
12/14/1999,799.0,42.9953,30465.9201,10.3502,21.3584,17.634,8.2686,0.030926629640456005,0.05057000876936568,0.8572678658240156,1.2500177216984476,0.027203355274654895,-0.018697829716193604,-0.049994612649499004,0.027203355274654895,0.017361083679641755,0.016186935610853822
12/15/1999,799.0,42.9953,30465.9201,10.3502,21.3584,17.615,8.2686,0.04428503675598772,0.06201090822859867,0.8563441905687894,1.2486708726164313,-0.0010774639900194005,-0.01669085631349798,-0.04623964481022269,0.027203355274654895,0.017352915275963436,0.016177566360262182
12/16/1999,799.0,42.9953,30465.9201,10.3502,21.3584,17.709,8.2686,0.015832042677680347,0.03722824528193658,0.8609139523578025,1.2553342312327211,0.005336361055918282,-0.02062824908749039,-0.054460996315873755,0.027203355274654895,0.017258197007615772,0.01608668492807082
12/17/1999,799.0,42.9953,30465.9201,10.3502,21.3584,17.709,8.2686,0.031993006993007,0.043939393939393945,0.8609139523578025,1.2553342312327211,0.0,-0.011443563693200987,-0.03240083051032672,0.027203355274654895,0.017149736214217864,0.01583743911516407
12/20/1999,799.0,42.9953,30465.9201,10.3502,21.3584,17.428,8.2686,0.026504888679467653,0.05842855460007068,0.8472532814778805,1.2354150421776422,-0.015867637924219302,-0.030161380077907474,-0.03204665370730342,0.027203355274654895,0.01745224371560209,0.015831698340725984
12/21/1999,799.0,42.9953,30465.9201,10.3502,21.3584,17.298,8.2686,0.018847920838732435,0.04523501001295793,0.8409333981526494,1.226199758984901,-0.00745926095937588,-0.025245125662121115,-0.0190541000340253,0.027203355274654895,0.017326017990802918,0.015646554281728477
12/22/1999,799.0,42.9953,30465.9201,10.3502,21.3584,17.354,8.2686,-0.005558420720875645,-0.008767405879319345,0.8436558094312104,1.2301694194371586,0.003237368481905367,0.003237368481905367,-0.00011523392486745276,0.027203355274654895,0.016430936121654277,0.015524044789507347
12/23/1999,799.0,42.9953,30465.9201,10.3502,21.3584,17.765,8.2686,0.002313247573911159,-0.014556533513879644,0.8636363636363636,1.259303891684979,0.023683300679958608,0.01711897400664175,0.013810420590081751,0.027203355274654895,0.017101015547516397,0.01576216592893793
12/24/1999,799.0,42.9953,30465.9201,10.3502,21.3584,17.765,8.2686,-0.016933207902163572,-0.03347905483924518,0.8636363636363636,1.259303891684979,0.0,0.01711897400664175,0.03913196069255975,0.027203355274654895,0.017101015547516397,0.01544180259820515
12/27/1999,799.0,42.9953,30465.9201,10.3502,21.3584,17.895,8.2686,0.005506546047086447,-0.029106029106029108,0.8699562469615946,1.2685191748777203,0.007317759639740906,0.03565021123907641,0.034393063583815,0.027203355274654895,0.01693837839825472,0.015398673039467858
12/28/1999,799.0,42.9953,30465.9201,10.3502,21.3584,18.418,8.2686,-0.004862762048843727,-0.0754808731359411,0.8953816237238696,1.3055929680300558,0.02922604079351765,0.07638361288060302,0.03355780022446675,0.02922604079351765,0.01772690464583601,0.015373391402362033
12/29/1999,799.0,42.9953,30465.9201,10.3502,21.3584,18.660999999999998,8.2686,0.03264899562835488,-0.03143157545238218,0.9071949440933397,1.3228184589211027,0.013193614941904519,0.06616008684225538,0.05049538392253994,0.02922604079351765,0.0173215800305297,0.015446156954963848
12/30/1999,799.0,42.9953,30465.9201,10.3502,21.3584,18.605,8.2686,0.05291454442558008,-0.022127900396151756,0.9044725328147788,1.3188487984688453,-0.003000910990836325,0.07674055211528441,0.026936026936026813,0.02922604079351765,0.016998128486270265,0.015260724841067198
12/31/1999,799.0,42.9953,30465.9201,10.3502,21.3584,18.699,8.2686,0.09903608792758911,0.03644057834724346,0.909042294603792,1.3255121570851351,0.00505240526740125,0.06039469207213344,0.0526345417698717,0.02922604079351765,0.016559402426936317,0.015053217781857845
1/3/2000,799.0,42.9953,30465.9201,10.3502,21.3584,17.933,8.2686,0.06541112167300378,0.07093631178707227,0.8718035974720466,1.2712128730417522,-0.040964757473661795,-0.005159214467990725,0.018052795912574693,0.02922604079351765,0.018504056643000897,0.01591327471878678
1/4/2000,799.0,42.9953,30465.9201,10.3502,21.3584,17.316,8.2686,0.015601173020527659,0.024398826979471933,0.8418084589207583,1.2274757212731267,-0.03440584397479507,-0.008588114050154472,-0.0500329163923634,0.02922604079351765,0.018795708283983855,0.015889591094340808
1/5/2000,799.0,42.9953,30465.9201,10.3502,21.3584,17.97,8.2686,0.05395894428152492,-0.0029912023460409998,0.8736023334953815,1.2738356844119938,0.037768537768537724,0.05712100711806545,-0.027018246791921774,0.037768537768537724,0.019506551585835707,0.016524494569543875
1/6/2000,799.0,42.9953,30465.9201,10.3502,21.3584,18.829,8.2686,0.11144560533616676,0.007791747830706575,0.9153621779290229,1.3347274402778762,0.047801892042292904,0.10285245709599944,0.04252256242732955,0.047801892042292904,0.021840702378391832,0.017362850655131636
1/7/2000,799.0,42.9953,30465.9201,10.3502,21.3584,19.166,8.2686,0.1625621739657892,0.0163775324517772,0.9317452600875061,1.358616289785213,0.017897923416007266,0.14382907615182616,0.07668108533228479,0.047801892042292904,0.0213251909145808,0.01738339986276784
1/10/2000,799.0,42.9953,30465.9201,10.3502,21.3584,18.567999999999998,8.2686,0.11767892614217779,0.026605670258231573,0.9026737967914438,1.3162259870986033,-0.031201085255139427,0.08871298739372602,0.06983175846969347,0.047801892042292904,0.02267899740926267,0.01755162321038527
1/11/2000,799.0,42.9953,30465.9201,10.3502,21.3584,18.493,8.2686,0.14069824821120158,0.058906982482112236,0.8990277102576567,1.3109094775643295,-0.004039207238259346,0.07724121861711408,0.07125065168278977,0.047801892042292904,0.022744003109294884,0.01754442966437542
1/12/2000,799.0,42.9953,30465.9201,10.3502,21.3584,18.773,8.2686,0.16183933655155336,0.09134793910137384,0.9126397666504618,1.3307577798256183,0.015140864110744667,0.06459113077010326,0.10892551243428428,0.047801892042292904,0.022270665491472188,0.017429222001630894
1/13/2000,799.0,42.9953,30465.9201,10.3502,21.3584,19.24,8.2686,0.20024953212726126,0.09887710542732364,0.9353427321341758,1.3638619125256963,0.024876151920311118,0.09225092250922518,0.10855035722516715,0.047801892042292904,0.022735486178945573,0.017421754642993274
1/14/2000,799.0,42.9953,30465.9201,10.3502,21.3584,18.829,8.2686,0.19359746434231373,0.12259904912836772,0.9153621779290229,1.3347274402778762,-0.02136174636174626,0.06324467784742227,0.09899025272865236,0.047801892042292904,0.023420001959122767,0.017569489444642608
1/17/2000,799.0,42.9953,30465.9201,10.3502,21.3584,18.829,8.2686,0.19496096972774013,0.12388144951450153,0.9153621779290229,1.3347274402778762,0.0,0.06324467784742227,0.11223344556677883,0.047801892042292904,0.023420001959122767,0.017485129279234655
1/18/2000,799.0,42.9953,30465.9201,10.3502,21.3584,18.381,8.2686,0.17330524703178862,0.11247287118600813,0.8935828877005347,1.3029701566598142,-0.02379308513463274,0.05468212072526968,0.08340209831427581,0.047801892042292904,0.02380310975066547,0.017780690622705646
1/19/2000,799.0,42.9953,30465.9201,10.3502,21.3584,18.026,8.2686,0.1560315526197653,0.1093439363817097,0.8763247447739426,1.2778053448642517,-0.019313421467820002,0.04208579026477066,0.05668562049358106,0.047801892042292904,0.02419608651093227,0.017962998591335953
1/20/2000,799.0,42.9953,30465.9201,10.3502,21.3584,17.298,8.2686,0.11062600321027283,0.11422150882825033,0.8409333981526494,1.226199758984901,-0.040386108953733624,-0.0032269217471476708,-0.00011560693641632369,0.047801892042292904,0.025917849038909917,0.01862298102041321
1/21/2000,799.0,42.9953,30465.9201,10.3502,21.3584,17.522000000000002,8.2686,0.132936764515712,0.14864864864864868,0.8518230432668936,1.242078400793932,0.012949473927621913,-0.01367858148043899,0.008518475883503962,0.047801892042292904,0.025533871411023812,0.01868578123741023
1/24/2000,799.0,42.9953,30465.9201,10.3502,21.3584,17.335,8.2686,0.12222438013853831,0.15006150061500612,0.8427321341759845,1.2288225703551428,-0.010672297682913001,-0.024204897269912706,-0.012813211845102424,0.047801892042292904,0.025632680000499883,0.01868800270301581
1/25/2000,799.0,42.9953,30465.9201,10.3502,21.3584,16.905,8.2686,0.060606060606060774,0.1227178618482967,0.8218279047156053,1.1983412490253065,-0.02480530718200169,-0.055322715842413994,-0.04937299668222461,0.047801892042292904,0.0260753688852311,0.01887233352113121
1/26/2000,799.0,42.9953,30465.9201,10.3502,21.3584,17.167,8.2686,0.0782614157402175,0.15683688210539537,0.8345649003403015,1.2169135889983695,0.015498373262348375,-0.06792268433054605,-0.04654262704804202,0.047801892042292904,0.025406833295802924,0.018909898093310444
1/27/2000,799.0,42.9953,30465.9201,10.3502,21.3584,17.372,8.2686,0.09491995461994196,0.17616286398588166,0.8445308701993194,1.2314453817253845,0.011941515698724148,-0.06907454048550443,-0.021020005635390304,0.047801892042292904,0.025368280849410164,0.018890113170485587
1/28/2000,799.0,42.9953,30465.9201,10.3502,21.3584,16.942999999999998,8.2686,0.07404120443740081,0.17939778129952466,0.8236752552260572,1.2010349471893385,-0.0246949113516004,-0.0893308250470305,-0.03409155692377874,0.047801892042292904,0.025802214196096827,0.019089985731695375
1/31/2000,799.0,42.9953,30465.9201,10.3502,21.3584,16.457,8.2686,0.02058914728682182,0.15962790697674434,0.8000486144871172,1.1665839654072445,-0.028684412441716156,-0.11989945986416395,-0.0716421278276076,0.047801892042292904,0.026248382107903395,0.01936542808380683
2/1/2000,799.0,42.9953,30465.9201,10.3502,21.3584,16.756,8.2686,0.04987468671679185,0.12362155388471163,0.8145843461351483,1.1877791167505494,0.018168560490976482,-0.0656331902079964,-0.06552897217110021,0.047801892042292904,0.025439490871083277,0.019452770054913516
2/2/2000,799.0,42.9953,30465.9201,10.3502,21.3584,16.457,8.2686,0.031140350877193024,0.08496240601503757,0.8000486144871172,1.1665839654072445,-0.017844354261160156,-0.04960729960729948,-0.0803062479043255,0.047801892042292904,0.02465934057384888,0.019569395793350097
2/3/2000,799.0,42.9953,30465.9201,10.3502,21.3584,16.364,8.2686,0.04702796084202432,0.1497856548723524,0.7955274671852213,1.159991493584745,-0.005651090721273566,-0.08937117417918738,-0.06704675028506257,0.047801892042292904,0.022904473571088362,0.01943275699532842
2/4/2000,799.0,42.9953,30465.9201,10.3502,21.3584,16.158,8.2686,0.05614746061834097,0.23073403490424194,0.785512882839086,1.1453888140639399,-0.012588609142019092,-0.14185564820224117,-0.07879133409350048,0.024876151920311118,0.019602247805560573,0.019487841773953088
2/7/2000,799.0,42.9953,30465.9201,10.3502,21.3584,15.635,8.2686,0.04961063372717511,0.28665413533834605,0.7600875060768109,1.1083150209116042,-0.032367867310310716,-0.18423249504330586,-0.11240420096508652,0.024876151920311118,0.019468932285838847,0.01986750436102638
2/8/2000,799.0,42.9953,30465.9201,10.3502,21.3584,15.504000000000001,8.2686,0.03698749247541988,0.24192361714935462,0.7537190082644629,1.0990288509250727,-0.008378637671889844,-0.16501507970702267,-0.12173568232028531,0.024876151920311118,0.018821323515924603,0.01987888338841678
2/9/2000,799.0,42.9953,30465.9201,10.3502,21.3584,15.243,8.2686,0.009670795522289222,0.22494535338146626,0.7410306271268838,1.0805273977457999,-0.016834365325077427,-0.17574217271399983,-0.13925122818905633,0.024876151920311118,0.018880744634773735,0.019956788774546395
2/10/2000,799.0,42.9953,30465.9201,10.3502,21.3584,15.093,8.2686,-0.016998827667057514,0.22267812947766052,0.7337384540593097,1.0698943786772523,-0.009840582562487765,-0.19602620785170188,-0.16010016694490814,0.024876151920311118,0.018053158551806,0.019860709948615055
2/11/2000,799.0,42.9953,30465.9201,10.3502,21.3584,14.514000000000001,8.2686,-0.05698135273861327,0.2500812162952375,0.7055906660184735,1.028850925072659,-0.03836215464122428,-0.24563409563409555,-0.1897956905213799,0.018168560490976482,0.017165636876667934,0.020366296833542564
2/14/2000,799.0,42.9953,30465.9201,10.3502,21.3584,15.130999999999998,8.2686,-0.007412752558383806,0.2351744948832326,0.7355858045697617,1.0725880768412843,0.04251067934408148,-0.19639917149078556,-0.1632009733436568,0.04251067934408148,0.020898430540575053,0.021108772361628884
2/15/2000,799.0,42.9953,30465.9201,10.3502,21.3584,15.690999999999999,8.2686,0.026830704796806604,0.23218375760748655,0.7628099173553718,1.1122846813638618,0.03701011169123003,-0.16665781507249466,-0.1240928882438318,0.04251067934408148,0.023227904102090385,0.02167077195343847
2/16/2000,799.0,42.9953,30465.9201,10.3502,21.3584,15.785,8.2686,0.043015726179463476,0.21455001982291533,0.767379679144385,1.1189480399801517,0.005990695303039972,-0.14123279473369243,-0.12159154145798545,0.04251067934408148,0.023149376060374555,0.0216844247872008
2/17/2000,799.0,42.9953,30465.9201,10.3502,21.3584,15.811,8.2686,0.045977771897327324,0.19251124636147132,0.7686436558094312,1.1207910966186998,0.0016471333544503253,-0.12287806501719734,-0.10903865659867007,0.04251067934408148,0.023042152101207126,0.02164558692133352
2/18/2000,799.0,42.9953,30465.9201,10.3502,21.3584,15.378,8.2686,0.031111707120826004,0.15984980555183026,0.7475935828877005,1.0900971149074927,-0.027385997090633052,-0.11099549080818583,-0.11099549080818583,0.04251067934408148,0.02223170483266088,0.021684950944257295
2/21/2000,799.0,42.9953,30465.9201,10.3502,21.3584,15.378,8.2686,0.011178327196212479,0.15215675960021047,0.7475935828877005,1.0900971149074927,0.0,-0.12236046113457377,-0.11954654757815175,0.04251067934408148,0.021875427133736497,0.021637456738731263
2/22/2000,799.0,42.9953,30465.9201,10.3502,21.3584,15.849,8.2686,0.011681348142474235,0.10653644835950482,0.7704910063198833,1.123484794782732,0.030628170113148556,-0.08572252668012692,-0.09257986946066632,0.04251067934408148,0.02324507621162775,0.022019011456599416
2/23/2000,799.0,42.9953,30465.9201,10.3502,21.3584,16.074,8.2686,0.039446456285566533,0.09318416968442844,0.7814292659212446,1.1394343233855533,0.014196479273140383,-0.049157054125998245,-0.0697378320504658,0.04251067934408148,0.023057154111765506,0.02207093371272201
2/24/2000,799.0,42.9953,30465.9201,10.3502,21.3584,15.133,8.2686,-0.020264146057231702,0.11142043247442723,0.7356830335439961,1.072729850428865,-0.05854174443200211,-0.11848313624978168,-0.1155981532347613,0.04251067934408148,0.02573026710487254,0.023212908271199952
2/25/2000,799.0,42.9953,30465.9201,10.3502,21.3584,14.776,8.2686,-0.06124523506988566,0.10368487928843706,0.7183276616431696,1.0474232650457218,-0.023590827991805896,-0.14943587381994017,-0.15580186253785067,0.04251067934408148,0.025682448942250764,0.023157584423047894
2/28/2000,799.0,42.9953,30465.9201,10.3502,21.3584,14.776,8.2686,-0.03190722662648238,0.11007010417349128,0.7183276616431696,1.0474232650457218,0.0,-0.12789942749217953,-0.1448579200185196,0.04251067934408148,0.0254131073885214,0.023121185241960312
2/29/2000,799.0,42.9953,30465.9201,10.3502,21.3584,14.87,8.2686,-0.046366959533123864,0.055409478612197915,0.7228974234321828,1.0540866236620117,0.006361667569030782,-0.09643312875979837,-0.15674265623227857,0.04251067934408148,0.02500933993230753,0.022964494270839894
3/1/2000,799.0,42.9953,30465.9201,10.3502,21.3584,14.55,8.2686,-0.06575060999101068,0.07589572364196728,0.7073407875546913,1.0314028496491103,-0.021519838601210428,-0.13165433277631888,-0.19283257516920005,0.04251067934408148,0.024707019267660498,0.022867674353140615
3/2/2000,799.0,42.9953,30465.9201,10.3502,21.3584,14.192,8.2686,-0.08011407829919615,0.06669691470054451,0.6899368011667477,1.0060253774721768,-0.024604810996563642,-0.1376314030503737,-0.18744990266804062,0.04251067934408148,0.02490672379552381,0.022754598535635356
3/3/2000,799.0,42.9953,30465.9201,10.3502,21.3584,14.776,8.2686,-0.015327202452352306,0.09049713447954177,0.7183276616431696,1.0474232650457218,0.04114994363021407,-0.0970422879491567,-0.13077239837637522,0.04251067934408148,0.027012852054207705,0.023216737611428704
3/6/2000,799.0,42.9953,30465.9201,10.3502,21.3584,14.456,8.2686,-0.051692469168197475,0.0599580162686959,0.7027710257656782,1.0247394910328205,-0.021656740660530582,-0.10533481866567651,-0.15328296140104258,0.04251067934408148,0.027220284862192863,0.023333695193129285
3/7/2000,799.0,42.9953,30465.9201,10.3502,21.3584,14.004000000000001,8.2686,-0.06559017815440038,0.043237472476145955,0.6807972775887215,1.0,-0.03126729385722182,-0.10431723696834017,-0.16423967534017658,0.04251067934408148,0.027165826986298682,0.023529926592049864
3/8/2000,799.0,42.9953,30465.9201,10.3502,21.3584,13.872,8.2686,-0.07328478856303033,0.035740530429554385,0.6743801652892562,1.0,-0.009425878320479919,-0.10526315789473695,-0.18663148636763416,0.04251067934408148,0.027173529976325547,0.02339877616982625
3/9/2000,799.0,42.9953,30465.9201,10.3502,21.3584,13.74,8.2686,-0.05787164015359303,0.045186505759736706,0.667963052989791,1.0,-0.009515570934256035,-0.09860263727612673,-0.19962719170501553,0.04251067934408148,0.02705991611597222,0.023380399143332824
3/10/2000,799.0,42.9953,30465.9201,10.3502,21.3584,14.06,8.2686,-0.0371182029858923,0.03362553074921237,0.6835196888672824,1.0232896652110626,0.02328966521106257,-0.06844232425627772,-0.2026766473857321,0.04251067934408148,0.02769627571450914,0.023303226820979843
3/13/2000,799.0,42.9953,30465.9201,10.3502,21.3584,13.835,8.2686,-0.07686661773537062,-0.03156068592780403,0.6725814292659212,1.0069141193595343,-0.016002844950213313,-0.04678241697671215,-0.21458983820607425,0.04251067934408148,0.0266801826799314,0.023355858705423328
3/14/2000,799.0,42.9953,30465.9201,10.3502,21.3584,13.853,8.2686,-0.06537579274052097,0.02084738901632699,0.6734564900340301,1.0082241630276565,0.0013010480664978896,-0.08446236203819968,-0.2177423908746965,0.04114994363021407,0.024688526885423476,0.023336598203846464
3/15/2000,799.0,42.9953,30465.9201,10.3502,21.3584,15.114,8.2686,-0.010928604148943033,0.026830704796806604,0.73475935828877,1.1,0.0910272143218076,-0.03677267223248981,-0.14653565983398265,0.0910272143218076,0.03113619222363533,0.026206021669827953
3/16/2000,799.0,42.9953,30465.9201,10.3502,21.3584,15.905,8.2686,0.04206250409486989,0.03420035379676345,0.7732134175984443,1.1575691411935953,0.05233558290326834,0.007602153943617296,-0.0873881110856094,0.0910272143218076,0.033251561481529156,0.02702723314239558
3/17/2000,799.0,42.9953,30465.9201,10.3502,21.3584,15.077,8.2686,0.002326818242255113,0.0511235208084031,0.7329606222654351,1.0973071324599708,-0.05205910091166299,-0.04642337613054204,-0.12839634639842745,0.0910272143218076,0.035197767528273714,0.027770523018798423
3/20/2000,799.0,42.9953,30465.9201,10.3502,21.3584,15.378,8.2686,0.049191512587841935,0.049191512587841935,0.7475935828877005,1.1192139737991267,0.019964183856204798,0.0,-0.1138642387922092,0.0910272143218076,0.03498468904644292,0.02789914698093652
3/21/2000,799.0,42.9953,30465.9201,10.3502,21.3584,15.717,8.2686,0.07232039298628634,0.049191512587841935,0.7640738940204181,1.1438864628820962,0.02204447912602414,0.02204447912602414,-0.11528285955530537,0.0910272143218076,0.035295926333609486,0.027876006802959978
3/22/2000,799.0,42.9953,30465.9201,10.3502,21.3584,15.002,8.2686,0.00220455608257053,0.058788162201883765,0.7293145357316481,1.0918486171761281,-0.0454921422663358,-0.053441857530443504,-0.15553053757388124,0.0910272143218076,0.03606860759053555,0.028418792738191496
3/23/2000,799.0,42.9953,30465.9201,10.3502,21.3584,15.171,8.2686,0.03761712605156964,0.09937760755078329,0.7375303840544482,1.1041484716157204,0.011265164644713943,-0.056177678238148676,-0.15222129086336966,0.0910272143218076,0.03600841341126402,0.02844464632694005
3/24/2000,799.0,42.9953,30465.9201,10.3502,21.3584,15.227,8.2686,0.040166678051779536,0.0337454744176513,0.7402527953330093,1.1082241630276566,0.0036912530485795347,0.006211590563668823,-0.17325442501900312,0.0910272143218076,0.03361586284126351,0.028169900280467
3/27/2000,799.0,42.9953,30465.9201,10.3502,21.3584,14.907,8.2686,0.01325448613376845,0.004350190320826508,0.7246961594555177,1.0849344978165938,-0.021015301766598826,0.008865728207904766,-0.20116821177857558,0.0910272143218076,0.03352691624949805,0.028189706373721243
3/28/2000,799.0,42.9953,30465.9201,10.3502,21.3584,14.982999999999999,8.2686,0.062096831360317406,0.04742326504572181,0.7283908604764219,1.0904657933042212,0.005098275977728495,0.014009204114780571,-0.1946788497715669,0.0910272143218076,0.033538178794980104,0.028208955100608217
3/29/2000,799.0,42.9953,30465.9201,10.3502,21.3584,15.322000000000001,8.2686,0.05727297819486621,0.026083356334529295,0.7448711716091395,1.1151382823871907,0.022625642394714207,0.030396772024209984,-0.18059789293545114,0.0910272143218076,0.03384993789717741,0.028376675405830106
3/30/2000,799.0,42.9953,30465.9201,10.3502,21.3584,15.999,8.2686,0.07275043583210405,-0.024406597827544618,0.7777831793874574,1.164410480349345,0.044184832267327945,0.09958762886597938,-0.10784587074109175,0.0910272143218076,0.03459910896005043,0.028555068845669856
3/31/2000,799.0,42.9953,30465.9201,10.3502,21.3584,15.754000000000001,8.2686,-0.004863874676267921,-0.10353104668056345,0.765872630043753,1.1465793304221252,-0.015313457091068128,0.11006200676437428,-0.09020559020559005,0.0910272143218076,0.03425808885447128,0.028299424637338002
4/3/2000,799.0,42.9953,30465.9201,10.3502,21.3584,15.962,8.2686,-0.07824680949356122,-0.14673442282150495,0.7759844433641225,1.1617176128093158,0.01320299606449149,0.08026529507309155,-0.11174179187534772,0.0910272143218076,0.03333579075752823,0.027921829060756253
4/4/2000,799.0,42.9953,30465.9201,10.3502,21.3584,16.206,8.2686,-0.05718773634301011,-0.15899703298621215,0.7878463782207097,1.179475982532751,0.015286304974313936,0.12105700055340352,-0.1393063890806735,0.0910272143218076,0.03287442437671665,0.027289186956026168
4/5/2000,799.0,42.9953,30465.9201,10.3502,21.3584,15.867,8.2686,-0.13332969193795052,-0.23508848590779974,0.7713660670879923,1.1548034934497817,-0.02091817845242494,0.13303341902313615,-0.17212772618178018,0.0910272143218076,0.03236198102213207,0.02727053702824688
4/6/2000,799.0,42.9953,30465.9201,10.3502,21.3584,15.905,8.2686,-0.10429689699836697,-0.21878695725629338,0.7732134175984443,1.1575691411935953,0.0023949076700069405,0.14655420991926182,-0.14341878500646266,0.0910272143218076,0.03217418447409789,0.02703026345480795
4/7/2000,799.0,42.9953,30465.9201,10.3502,21.3584,15.679,8.2686,-0.10410833666647612,-0.21490200559967987,0.762226543509966,1.1411208151382823,-0.014209368123231592,0.14112081513828234,-0.15216568431298316,0.0910272143218076,0.03231080590913499,0.027072382927117947
4/10/2000,799.0,42.9953,30465.9201,10.3502,21.3584,15.642000000000001,8.2686,-0.08413841559810287,-0.17676678962468528,0.7604278074866311,1.1384279475982533,-0.0023598443778302114,0.11251778093883358,-0.1667820806477387,0.0910272143218076,0.03214046309603181,0.026980595311439114
4/11/2000,799.0,42.9953,30465.9201,10.3502,21.3584,16.281,8.2686,-0.06869923349731155,-0.20861457499141967,0.7914924647544967,1.1849344978165939,0.04085155350978109,0.17679797614745185,-0.15379417879417878,0.0910272143218076,0.03262301392887463,0.02731538743195435
4/12/2000,799.0,42.9953,30465.9201,10.3502,21.3584,17.204,8.2686,-0.009670734515311974,-0.20256734975823165,0.8363636363636364,1.2521106259097525,0.05669184939500038,0.24189706200822925,-0.08630304317807636,0.0910272143218076,0.03423009114914284,0.028192153593203366
4/13/2000,799.0,42.9953,30465.9201,10.3502,21.3584,16.884,8.2686,-0.033211177278973936,-0.13456252863032525,0.8208070004861449,1.22882096069869,-0.018600325505696347,0.1171099642715363,-0.10329810398852834,0.05669184939500038,0.02942425001797294,0.028278305782755798
4/14/2000,799.0,42.9953,30465.9201,10.3502,21.3584,16.018,8.2686,-0.11800011012609424,-0.12422223445845482,0.7787068546426835,1.1657933042212518,-0.05129116323146177,0.007104684061616018,-0.12855666177030622,0.05669184939500038,0.02989747874077629,0.02883716311056068
4/17/2000,799.0,42.9953,30465.9201,10.3502,21.3584,16.037,8.2686,-0.1593982597756578,-0.20971799979033434,0.7796305298979095,1.1671761280931585,0.0011861655637406265,0.06367314452477268,-0.11034061910573623,0.05669184939500038,0.027342354918700077,0.028751612759810356
4/18/2000,799.0,42.9953,30465.9201,10.3502,21.3584,15.415999999999999,8.2686,-0.19118572927597066,-0.19317943336831056,0.7494409333981525,1.1219796215429403,-0.03872295317079255,0.0024710625568993283,-0.10879870505260725,0.05669184939500038,0.028527394212856747,0.028716027660717586
4/19/2000,799.0,42.9953,30465.9201,10.3502,21.3584,15.245999999999999,8.2686,-0.23963892075208215,-0.21614882050770523,0.7411764705882352,1.1096069868995633,-0.011027503892060198,-0.02996755105936255,-0.12989384773427703,0.05669184939500038,0.02818971151090679,0.028681322236039978
4/20/2000,799.0,42.9953,30465.9201,10.3502,21.3584,15.962,8.2686,-0.183738174379954,-0.23283047813858349,0.7759844433641225,1.1617176128093158,0.04696313787222883,0.06399146780429277,-0.07920392269974041,0.05669184939500038,0.02812473740373533,0.02930630237968531
4/21/2000,799.0,42.9953,30465.9201,10.3502,21.3584,15.962,8.2686,-0.19208381839348088,-0.23212026117325513,0.7759844433641225,1.1617176128093158,0.0,0.0521389493111859,-0.05578231292517011,0.05669184939500038,0.028073255974465063,0.029146006272578538
4/24/2000,799.0,42.9953,30465.9201,10.3502,21.3584,16.357,8.2686,-0.20124035550346708,-0.2564215255396034,0.795187165775401,1.190465793304221,0.024746272396942715,0.0742102843633019,-0.047183549833983984,0.05669184939500038,0.028479862321071303,0.029250960472293534
4/25/2000,799.0,42.9953,30465.9201,10.3502,21.3584,16.846,8.2686,-0.1780835284933645,-0.27268735362997654,0.8189596499756927,1.2260553129548764,0.029895457602249875,0.13007312001073323,-0.030278609256274458,0.05669184939500038,0.028428794929763287,0.02945935609833429
4/26/2000,799.0,42.9953,30465.9201,10.3502,21.3584,16.375999999999998,8.2686,-0.19595423970147807,-0.26434919232091136,0.796110841030627,1.191848617176128,-0.027899798171672985,0.09297203497296924,-0.03346514784866905,0.05669184939500038,0.02938977876560288,0.029505306019805964
4/27/2000,799.0,42.9953,30465.9201,10.3502,21.3584,16.187,8.2686,-0.20091820111566372,-0.2436194895591648,0.7869227029654837,1.1780931586608443,-0.011541279921836622,0.056454770917634844,-0.0164063924166008,0.05669184939500038,0.029290566014039204,0.029316021386260747
4/28/2000,799.0,42.9953,30465.9201,10.3502,21.3584,16.375999999999998,8.2686,-0.1974122721035092,-0.21588904136443832,0.796110841030627,1.191848617176128,0.011676036325446226,0.02356397274829658,-0.022678443542611726,0.05669184939500038,0.027829042595156353,0.02926304652524713
5/1/2000,799.0,42.9953,30465.9201,10.3502,21.3584,16.413,8.2686,-0.20209042294603796,-0.23412736995624694,0.8014942865514211,1.1945414847161573,0.002259404005862331,0.04183064618509569,-0.002673634319742435,0.05669184939500038,0.027561848886852314,0.029174202082306474
5/2/2000,799.0,42.9953,30465.9201,10.3502,21.3584,16.375999999999998,8.2686,-0.20031253052055864,-0.22052934856919615,0.8188818881888187,1.191848617176128,-0.00225431060744552,0.025936599423630913,0.0007333170373988729,0.05669184939500038,0.02746271723808848,0.0291660272347529
5/3/2000,799.0,42.9953,30465.9201,10.3502,21.3584,15.849,8.2686,-0.20747074707470747,-0.18961896189618965,0.796472184531886,1.1534934497816594,-0.032181240840253866,-0.022028878193261714,-0.0191236539175641,0.05669184939500038,0.028220948925684827,0.029410480045563795
5/4/2000,799.0,42.9953,30465.9201,10.3502,21.3584,16.074,8.2686,-0.1756923076923076,-0.18630769230769229,0.8077792853912258,1.1698689956331878,0.014196479273140383,0.013045944412932498,0.02807803006076126,0.05669184939500038,0.028001476202141617,0.029165045801107806
5/5/2000,799.0,42.9953,30465.9201,10.3502,21.3584,16.601,8.2686,-0.13725184492256526,-0.17342272113085966,0.8342630282928789,1.2082241630276565,0.03278586537265138,0.043759823954731214,0.07075593395252833,0.05669184939500038,0.028850236622273248,0.02941489192465942
5/8/2000,799.0,42.9953,30465.9201,10.3502,21.3584,16.647000000000002,8.2686,-0.12139124927429135,-0.1724811315775584,0.8365747022463441,1.2115720524017468,0.0027709174146137716,0.061738631290261026,0.09210785278488487,0.05669184939500038,0.028597223038225688,0.029321263563368782
5/9/2000,799.0,42.9953,30465.9201,10.3502,21.3584,16.837,8.2686,-0.10436725357731791,-0.1679344645991807,0.8461229207497863,1.225400291120815,0.011413467892112505,0.07639688019434843,0.11555025508513883,0.05669184939500038,0.02862018495372337,0.029307209991320974
5/10/2000,799.0,42.9953,30465.9201,10.3502,21.3584,16.552,8.2686,-0.11694408877507467,-0.13140204865556981,0.8318005929946228,1.2046579330422125,-0.016927005998693345,0.01664516921565018,0.14041614992421092,0.05669184939500038,0.027651199081370294,0.028951485572569893
5/11/2000,799.0,42.9953,30465.9201,10.3502,21.3584,16.930999999999997,8.2686,-0.09580774365821121,-0.08122830440587459,0.8508467762199103,1.2322416302765646,0.022897535041082495,-0.015868402697047368,0.1189610732932389,0.04696313787222883,0.02512510394983693,0.028617802394340815
5/12/2000,799.0,42.9953,30465.9201,10.3502,21.3584,16.723,8.2686,-0.09173365196610905,-0.08298935476862912,0.8403939896477209,1.217103347889374,-0.012285157403579161,-0.009535655058043213,0.06577018673124724,0.04696313787222883,0.02493419107796519,0.02832267361860079
5/15/2000,799.0,42.9953,30465.9201,10.3502,21.3584,17.235,8.2686,-0.037903315842358065,-0.10583900859662843,0.8661239258254183,1.2543668122270741,0.030616516175327346,0.07597702584592336,0.09185936015204299,0.04696313787222883,0.022855466887177017,0.028555977377972813
5/16/2000,799.0,42.9953,30465.9201,10.3502,21.3584,17.178,8.2686,-0.04108518477168699,-0.10477838562018549,0.8632594602743856,1.2502183406113538,-0.003307223672758819,0.07114797031863818,0.08645879451015115,0.04696313787222883,0.02290157107454927,0.028563209987811523
5/17/2000,799.0,42.9953,30465.9201,10.3502,21.3584,16.817999999999998,8.2686,-0.06118119906218622,-0.13944401027129638,0.845168098899442,1.2240174672489081,-0.020957038071952705,0.09094447327451993,0.09364026531408487,0.04696313787222883,0.021551108965653574,0.02846889122163413
5/18/2000,799.0,42.9953,30465.9201,10.3502,21.3584,16.817999999999998,8.2686,-0.10184245660881197,-0.1857943925233646,0.845168098899442,1.2240174672489081,0.0,0.10310901219992119,0.09364026531408487,0.04696313787222883,0.02128985074906362,0.02846889122163413
5/19/2000,799.0,42.9953,30465.9201,10.3502,21.3584,16.742,8.2686,-0.09522265456117596,-0.1373757025507999,0.8413488114980653,1.218486171761281,-0.004518967772624394,0.04886605688510226,0.05634424884850775,0.03278586537265138,0.019050193817986175,0.028238648409816675
5/22/2000,799.0,42.9953,30465.9201,10.3502,21.3584,16.742,8.2686,-0.09969885996988592,-0.14164336416433643,0.8413488114980653,1.218486171761281,0.0,0.04886605688510226,0.04155779519721281,0.03278586537265138,0.019050193817986175,0.0281903515116124
5/23/2000,799.0,42.9953,30465.9201,10.3502,21.3584,16.533,8.2686,-0.1265321217244294,-0.13583051563820803,0.8308457711442786,1.2032751091703058,-0.012483574244415263,0.01075991930060538,0.09251305094825901,0.03278586537265138,0.018598192738705156,0.027200241254036174
5/24/2000,799.0,42.9953,30465.9201,10.3502,21.3584,16.685,8.2686,-0.11070248374373748,-0.10212130902888816,0.8384843459470324,1.2143377001455602,0.009193733744631727,-0.009557164905615645,0.12919599350297784,0.03278586537265138,0.017487344227928383,0.02702032380808577
5/25/2000,799.0,42.9953,30465.9201,10.3502,21.3584,15.585,8.2686,-0.16110453224243726,-0.11852729034341702,0.7832051861902608,1.1342794759825328,-0.06592747977225044,-0.04830239374694656,0.054750947482403944,0.03278586537265138,0.021899326070728985,0.028354016115994956
5/26/2000,799.0,42.9953,30465.9201,10.3502,21.3584,15.49,8.2686,-0.14235092187586507,-0.10375948175627037,0.7784310769385396,1.1273653566229986,-0.006095604748155292,-0.04305924507320691,0.04169468728984538,0.03278586537265138,0.02181429583916596,0.028361154622856568
5/29/2000,799.0,42.9953,30465.9201,10.3502,21.3584,15.49,8.2686,-0.14932176396287544,-0.10066450656268888,0.7784310769385396,1.1273653566229986,0.0,-0.054103566194430686,0.06460481099656357,0.03278586537265138,0.021599697056545308,0.02821425184751302
5/30/2000,799.0,42.9953,30465.9201,10.3502,21.3584,15.737,8.2686,-0.13485431555799898,-0.09769103903243548,0.7908437609930147,1.1453420669577874,0.01594577146546161,-0.04118686407116312,0.10886414881623452,0.03278586537265138,0.021951539684780374,0.028074013759711094
5/31/2000,799.0,42.9953,30465.9201,10.3502,21.3584,15.035,8.2686,-0.20647068137435998,-0.13569430516704495,0.755565606311875,1.0942503639010188,-0.04460824807777852,-0.08188812896922315,0.017528424472117,0.03278586537265138,0.023861133277684535,0.028225132927310076
6/1/2000,799.0,42.9953,30465.9201,10.3502,21.3584,15.13,8.2686,-0.2006551141166526,-0.16266906170752327,0.7603397155635961,1.1011644832605532,0.006318589956767484,-0.04536563821061257,0.046624239070282236,0.03278586537265138,0.0230349479575951,0.028088008871531813
6/2/2000,799.0,42.9953,30465.9201,10.3502,21.3584,15.168,8.2686,-0.1978847170809096,-0.14997355896351128,0.7622493592642846,1.1039301310043668,0.0025115664243224867,-0.056364315042926605,0.08311910882604945,0.03278586537265138,0.022764937643574817,0.027780716736399952
6/5/2000,799.0,42.9953,30465.9201,10.3502,21.3584,14.902999999999999,8.2686,-0.2041121495327104,-0.11343124165554086,0.7489321071410623,1.0846433770014554,-0.01747099156118148,-0.10228299500030125,0.07432237600922709,0.030616516175327346,0.0214742448525106,0.02785083354083324
6/6/2000,799.0,42.9953,30465.9201,10.3502,21.3584,14.675,8.2686,-0.2170827998292787,-0.11187580025608179,0.7374742449369315,1.0680494905385736,-0.015298933100717838,-0.11845978254340128,0.06804949053857356,0.030616516175327346,0.021513469528599092,0.027897281193129803
6/7/2000,799.0,42.9953,30465.9201,10.3502,21.3584,14.618,8.2686,-0.20683667932718386,-0.0864351600651112,0.7346097793858988,1.063901018922853,-0.0038841567291312273,-0.13179307477579139,0.039687055476529176,0.030616516175327346,0.021158923598625857,0.027763544472952387
6/8/2000,799.0,42.9953,30465.9201,10.3502,21.3584,14.523,8.2686,-0.202427371080235,-0.09099895655994283,0.7298356701341775,1.0569868995633187,-0.006498837050212147,-0.1225833736104398,0.049728948319479604,0.030616516175327346,0.021023656031316156,0.027695431324540228
6/9/2000,799.0,42.9953,30465.9201,10.3502,21.3584,14.542,8.2686,-0.23098889476467477,-0.10465362242199905,0.7307904919845218,1.0583697234352256,0.0013082696412587413,-0.14110212037091718,0.049736519165523685,0.030616516175327346,0.020045365730559456,0.027695431991893758
6/12/2000,799.0,42.9953,30465.9201,10.3502,21.3584,14.751,8.2686,-0.19070609535304772,-0.0825149503483843,0.7412935323383084,1.0735807860262008,0.01437216338880476,-0.1179214255815344,-0.02401746724890841,0.030616516175327346,0.02053345206150321,0.025259723604922183
6/13/2000,799.0,42.9953,30465.9201,10.3502,21.3584,14.390999999999998,8.2686,-0.20967653358229454,-0.053490032401559695,0.7232021709633649,1.0473799126637553,-0.024405125076266132,-0.16501305483028728,-0.09519019176359644,0.01594577146546161,0.019122763623319616,0.02453160934558087
6/14/2000,799.0,42.9953,30465.9201,10.3502,21.3584,14.599,8.2686,-0.19662117543473479,-0.05469953775038516,0.7336549575355545,1.0625181950509461,0.014453477868112241,-0.15013389218768192,-0.03170391987795984,0.01594577146546161,0.019740720827041723,0.02372951352692545
6/15/2000,799.0,42.9953,30465.9201,10.3502,21.3584,14.258,8.2686,-0.20572670046236985,-0.06311626093253875,0.7165184180109553,1.0377001455604076,-0.023357764230426792,-0.1522178618147223,-0.07283131746651061,0.01594577146546161,0.01982914375303529,0.023762467385554258
6/16/2000,799.0,42.9953,30465.9201,10.3502,21.3584,14.125,8.2686,-0.18980153722610993,-0.03533325685442257,0.7098346650585456,1.0280203784570596,-0.009328096507223993,-0.16012605541681524,-0.10129159508812113,0.01594577146546161,0.019753771775206985,0.023601620479017277
6/19/2000,799.0,42.9953,30465.9201,10.3502,21.3584,13.519,8.2686,-0.23668906329399797,-0.05471176105245312,0.6793808734107242,1.0,-0.04290265486725664,-0.19250985545335086,-0.09885348620183976,0.01594577146546161,0.021134881655313003,0.02352576008950591
6/20/2000,799.0,42.9953,30465.9201,10.3502,21.3584,13.196,8.2686,-0.26488774998607323,-0.0673500083560804,0.6631489019548721,1.0,-0.023892299726311128,-0.21180265201290172,-0.13018258519543868,0.01594577146546161,0.021217527101483474,0.02363774297714624
6/21/2000,799.0,42.9953,30465.9201,10.3502,21.3584,12.779000000000002,8.2686,-0.288117653612612,-0.07899281377082057,0.642193075028896,1.0,-0.03160048499545298,-0.22706102945623896,-0.1607670585144808,0.01594577146546161,0.02168701615354445,0.023918757111194105
6/22/2000,799.0,42.9953,30465.9201,10.3502,21.3584,13.045,8.2686,-0.2626610897580828,-0.0569183811892382,0.6555605809337153,1.0208154002660614,0.020815400266061435,-0.218160023973629,-0.12490776145435034,0.020815400266061435,0.02239068566304964,0.02397690358365987
6/23/2000,799.0,42.9953,30465.9201,10.3502,21.3584,13.064,8.2686,-0.262379312291796,-0.12003839421828233,0.6565154027840595,1.02230221457078,0.0014564967420467312,-0.161758100737889,-0.12807848895414797,0.020815400266061435,0.01871311549926841,0.02396431291909556
6/26/2000,799.0,42.9953,30465.9201,10.3502,21.3584,13.045,8.2686,-0.2664754835807468,-0.12899235267656328,0.6555605809337153,1.0208154002660614,-0.0014543784445805175,-0.15784377017430606,-0.14860984205717276,0.020815400266061435,0.018766520679708243,0.023758142898593213
6/27/2000,799.0,42.9953,30465.9201,10.3502,21.3584,13.556,8.2686,-0.2524951750758203,-0.14585056520540396,0.6812402633298155,1.060802879724548,0.03917209658873122,-0.12485474499677218,-0.15269704356522296,0.03917209658873122,0.021365853151925608,0.023607966877179455
6/28/2000,799.0,42.9953,30465.9201,10.3502,21.3584,13.727,8.2686,-0.23372781065088766,-0.12152506419560127,0.6898336599829137,1.0741842084670161,0.012614340513425804,-0.12772447099192985,-0.128665735686175,0.03917209658873122,0.021205655959847684,0.023622849387078752
6/29/2000,799.0,42.9953,30465.9201,10.3502,21.3584,13.651,8.2686,-0.23399360305257833,-0.15633241681162657,0.6860143725815367,1.0682369512481413,-0.005536533838420676,-0.0920518789491187,-0.14478135571983464,0.03917209658873122,0.019302401436674308,0.023547365876622126
6/30/2000,799.0,42.9953,30465.9201,10.3502,21.3584,13.443,8.2686,-0.2313454171193322,-0.1348847847218252,0.6755615860093471,1.0519602472806948,-0.015236978975899262,-0.11150033046926644,-0.17049241021843764,0.03917209658873122,0.019276479740811044,0.023495615578741438
7/3/2000,799.0,42.9953,30465.9201,10.3502,21.3584,13.936,8.2686,-0.2163742690058481,-0.14709851551956832,0.7003367003367003,1.0905391658189216,0.03667336160083323,-0.08122362869198307,-0.12169912396798388,0.03917209658873122,0.021314477855987495,0.02389199365470475
7/4/2000,799.0,42.9953,30465.9201,10.3502,21.3584,13.936,8.2686,-0.23077772258100127,-0.17740243969752179,0.7003367003367003,1.0905391658189216,0.0,-0.06488626451050117,-0.12379754794089903,0.03917209658873122,0.021094411321063728,0.023887155173159657
7/5/2000,799.0,42.9953,30465.9201,10.3502,21.3584,13.613,8.2686,-0.24009154850954573,-0.1808083063525734,0.6841047288808483,1.065263322638704,-0.023177382319173434,-0.07236797274275986,-0.13176860769181709,0.03917209658873122,0.021392455732672566,0.02398871925852095
7/6/2000,799.0,42.9953,30465.9201,10.3502,21.3584,13.329,8.2686,-0.24974670719351555,-0.1771923899583473,0.6698326549072817,1.0430393614523827,-0.020862410930727937,-0.08817895744971949,-0.1478711162255466,0.03917209658873122,0.021731682169084984,0.024106711767324204
7/7/2000,799.0,42.9953,30465.9201,10.3502,21.3584,13.253,8.2686,-0.24698863636363644,-0.17482954545454554,0.6660133675059048,1.037092104233508,-0.005701853102258236,-0.08744749707360733,-0.18598366193722737,0.03917209658873122,0.021728091470025596,0.02346928374682566
7/10/2000,799.0,42.9953,30465.9201,10.3502,21.3584,13.234000000000002,8.2686,-0.2672609490061457,-0.1948397098721001,0.6650585456555607,1.0356052899287895,-0.001433637666943155,-0.08994636226103692,-0.23076028830504525,0.03917209658873122,0.021702042801057957,0.022193084233567934
7/11/2000,799.0,42.9953,30465.9201,10.3502,21.3584,13.802999999999999,8.2686,-0.21242725094145842,-0.15833618623758994,0.6936529473842906,1.0801314656858907,0.042995315097476006,-0.0642668293675005,-0.1824804548685146,0.042995315097476006,0.023734067027872157,0.022881644606003143
7/12/2000,799.0,42.9953,30465.9201,10.3502,21.3584,13.594000000000001,8.2686,-0.23483057525610707,-0.1899696048632219,0.683149907030504,1.0637765083339854,-0.015141635876258608,-0.05538183586964052,-0.1513297540267199,0.042995315097476006,0.02339791795525483,0.02208896137775308
7/13/2000,799.0,42.9953,30465.9201,10.3502,21.3584,13.936,8.2686,-0.21558032196330057,-0.17826184847461435,0.7003367003367003,1.0905391658189216,0.025158158010887055,-0.045414069456812145,-0.13100954043773771,0.042995315097476006,0.023895891885340706,0.02235589419720446
7/14/2000,799.0,42.9953,30465.9201,10.3502,21.3584,13.745999999999999,8.2686,-0.2302609474745213,-0.20159032366446417,0.6907884818332578,1.0756710227717345,-0.01363375430539615,-0.03590966474961432,-0.10832900882200314,0.042995315097476006,0.023551851767747163,0.021909816487467815
7/17/2000,799.0,42.9953,30465.9201,10.3502,21.3584,13.329,8.2686,-0.24584134887405218,-0.20080344008147555,0.6698326549072817,1.0430393614523827,-0.030336097773897674,-0.05635398230088495,-0.12573789846517103,0.042995315097476006,0.02433514574720356,0.022177499885857672
7/18/2000,799.0,42.9953,30465.9201,10.3502,21.3584,13.234000000000002,8.2686,-0.2480681818181818,-0.23187500000000005,0.6650585456555607,1.0356052899287895,-0.007127316377822712,-0.021081440934980322,-0.17090590151610063,0.042995315097476006,0.02255045326940618,0.021284846597936176
7/19/2000,799.0,42.9953,30465.9201,10.3502,21.3584,12.95,8.2686,-0.28227013246134236,-0.2686360361358976,0.650786471681994,1.013381328742468,-0.021459876076772133,-0.01864201273113064,-0.18869815812554824,0.042995315097476006,0.022431702758267218,0.02141152603438441
7/20/2000,799.0,42.9953,30465.9201,10.3502,21.3584,12.779000000000002,8.2686,-0.29100088770528176,-0.29100088770528176,0.642193075028896,1.0,-0.013204633204633054,0.0,-0.21874426850889517,0.042995315097476006,0.021502895517304096,0.021148067553499936
7/21/2000,799.0,42.9953,30465.9201,10.3502,21.3584,12.988,8.2686,-0.2838158257513097,-0.2806727322856356,0.6526961153826825,1.0163549573519053,0.016354957351905286,-0.004369490226140305,-0.22901579009853978,0.042995315097476006,0.021310433699322503,0.020868192534030522
7/24/2000,799.0,42.9953,30465.9201,10.3502,21.3584,12.874,8.2686,-0.2979605191405824,-0.28759952012215073,0.6469671842806172,1.0074340715235932,-0.008777332922697778,-0.014543784445805175,-0.21384953590620404,0.042995315097476006,0.021392451841692726,0.020651489803714087
7/25/2000,799.0,42.9953,30465.9201,10.3502,21.3584,12.912,8.2686,-0.30714745653573716,-0.30001073191672034,0.6488768279813056,1.0104077001330307,0.002951685567811113,-0.01019547719432723,-0.2023228516710941,0.042995315097476006,0.021404038703495665,0.020642330333764006
7/26/2000,799.0,42.9953,30465.9201,10.3502,21.3584,12.571,8.2686,-0.3241034464218506,-0.27114360987149855,0.6317402884567064,1.0,-0.026409541511772106,-0.0726615520802596,-0.23235222276502188,0.042995315097476006,0.020106217956299317,0.020751958964099756
7/27/2000,799.0,42.9953,30465.9201,10.3502,21.3584,12.533,8.2686,-0.3117139875885552,-0.24614201768356303,0.6298306447560178,1.0,-0.00302283032376105,-0.08698186056676627,-0.23639797721318467,0.042995315097476006,0.019770434217474576,0.020737028040435344
7/28/2000,799.0,42.9953,30465.9201,10.3502,21.3584,12.343,8.2686,-0.342933191376098,-0.2733031674208145,0.6202824262525755,1.0,-0.01515997765898025,-0.09581715625228915,-0.24627503663898376,0.042995315097476006,0.019915435773122075,0.020782606042567865
7/31/2000,799.0,42.9953,30465.9201,10.3502,21.3584,12.343,8.2686,-0.33034939236111116,-0.27067057291666674,0.6202824262525755,1.0,0.0,-0.08182697314587517,-0.22121269480724337,0.042995315097476006,0.01978557662238062,0.02047863004253175
8/1/2000,799.0,42.9953,30465.9201,10.3502,21.3584,12.343,8.2686,-0.33302712633740406,-0.24694693612882312,0.6202824262525755,1.0,0.0,-0.11430826636050517,-0.2321139728754511,0.042995315097476006,0.017516267509012556,0.020355669431885638
8/2/2000,799.0,42.9953,30465.9201,10.3502,21.3584,12.437999999999999,8.2686,-0.3258901956533522,-0.24470218416346,0.6250565355042966,1.0076966701774284,0.007696670177428366,-0.10749138920780721,-0.2507680260225288,0.042995315097476006,0.01771905418649885,0.019864298588986112
8/3/2000,799.0,42.9953,30465.9201,10.3502,21.3584,12.362,8.2686,-0.33995408190506693,-0.2731592717176571,0.6212372481029197,1.0015393340354857,-0.006110307123331604,-0.09189745096598834,-0.25740373640896264,0.042995315097476006,0.0172407126381852,0.019844259050532796
8/4/2000,799.0,42.9953,30465.9201,10.3502,21.3584,12.267000000000001,8.2686,-0.34502642960115315,-0.2883229216722729,0.6164631388511986,1.0,-0.007684840640672985,-0.0796758946657663,-0.27142602601413546,0.042995315097476006,0.01684842475024315,0.019742579027303878
8/7/2000,799.0,42.9953,30465.9201,10.3502,21.3584,12.798,8.2686,-0.3193639312875606,-0.295165665053449,0.6431478968792401,1.0432868672046953,0.04328686720469532,-0.034331849392590374,-0.2268003866602223,0.04328686720469532,0.019720313565244302,0.02058654016569635
8/8/2000,799.0,42.9953,30465.9201,10.3502,21.3584,12.921,8.2686,-0.3370446382760389,-0.32098512057465356,0.6493291120156791,1.0533137686475909,0.009610876699484239,-0.02365120145080868,-0.23684365955938802,0.04328686720469532,0.01986830277013608,0.02037491766505092
8/9/2000,799.0,42.9953,30465.9201,10.3502,21.3584,13.074000000000002,8.2686,-0.34298205939996984,-0.3063470526157094,0.6792041144994545,1.065786255808266,0.01184118876247986,-0.05281460552053885,-0.2182024756323625,0.04328686720469532,0.017437038264926718,0.020444747616233695
8/10/2000,799.0,42.9953,30465.9201,10.3502,21.3584,12.652999999999999,8.2686,-0.3426671515403399,-0.2937814951426049,0.6576403326403326,1.0314665362354283,-0.032201315588190504,-0.06922171546270428,-0.26585436611546276,0.04328686720469532,0.018427790324741816,0.020275592391848556
8/11/2000,799.0,42.9953,30465.9201,10.3502,21.3584,13.035,8.2686,-0.3135499499710359,-0.26610142714202967,0.6774948024948025,1.0626069943751528,0.030190468663558123,-0.06465269804822038,-0.24118057981138663,0.04328686720469532,0.018843691111349373,0.020746205170531835
8/14/2000,799.0,42.9953,30465.9201,10.3502,21.3584,12.997,8.2686,-0.30400556924065547,-0.26389632644318306,0.6755197505197506,1.0595092524659655,-0.0029152282316839973,-0.05448857849556221,-0.22719705077892727,0.04328686720469532,0.01868602782730915,0.020634803646853744
8/15/2000,799.0,42.9953,30465.9201,10.3502,21.3584,13.227,8.2686,-0.29237106783650757,-0.2869141878878665,0.6874740124740125,1.078258742968941,0.01769639147495572,-0.007652487058294022,-0.2135212272565108,0.04328686720469532,0.018036669078246245,0.02080808305632457
8/16/2000,799.0,42.9953,30465.9201,10.3502,21.3584,13.302999999999999,8.2686,-0.27094864909300165,-0.27473009261796455,0.6914241164241164,1.0844542267873154,0.005745822937929912,0.005213843131328222,-0.20541153983992366,0.04328686720469532,0.018008611369783618,0.020840863190279616
8/17/2000,799.0,42.9953,30465.9201,10.3502,21.3584,13.15,8.2686,-0.26280973203273916,-0.27402175131741235,0.6834719334719336,1.0719817396266405,-0.011501165150717751,0.015444015444015635,-0.2145502329470792,0.04328686720469532,0.017528883318648394,0.020860712330592484
8/18/2000,799.0,42.9953,30465.9201,10.3502,21.3584,13.189,8.2686,-0.2742130750605327,-0.29677525863966536,0.6854989604989605,1.0751610010597537,0.002965779467680507,0.03208388762813974,-0.20226214238190288,0.04328686720469532,0.017232090869321946,0.020845527890939974
8/21/2000,799.0,42.9953,30465.9201,10.3502,21.3584,13.015999999999998,8.2686,-0.2973819163292848,-0.29889338731443993,0.6765072765072765,1.061058123420559,-0.01311699143225431,0.0021558361564519846,-0.2198981120767156,0.04328686720469532,0.017174265517186493,0.02081821764860106
8/22/2000,799.0,42.9953,30465.9201,10.3502,21.3584,13.112,8.2686,-0.30128956623681113,-0.31397207716082265,0.6814968814968816,1.0688839977174531,0.007375537799631404,0.01848687276681682,-0.15867821623355793,0.04328686720469532,0.01711171512282223,0.01927671698735571
8/23/2000,799.0,42.9953,30465.9201,10.3502,21.3584,12.94,8.2686,-0.31045507833315567,-0.31194713844186284,0.6725571725571726,1.0548626396021845,-0.01311775472849308,0.0021685254027259404,-0.16462233699160755,0.04328686720469532,0.01737784106527753,0.01931777120849682
8/24/2000,799.0,42.9953,30465.9201,10.3502,21.3584,12.921,8.2686,-0.31216396060686724,-0.3307958477508651,0.6715696465696466,1.0533137686475909,-0.001468315301391021,0.027841858245167384,-0.1658489347966431,0.04328686720469532,0.016282778297738488,0.019315386457509423
8/25/2000,799.0,42.9953,30465.9201,10.3502,21.3584,13.093,8.2686,-0.307102032176122,-0.3367379339542761,0.6805093555093555,1.0673351267628597,0.01331166318396404,0.044682039415941954,-0.16801169219037937,0.04328686720469532,0.016448544430878224,0.01927720690412174
8/28/2000,799.0,42.9953,30465.9201,10.3502,21.3584,13.074000000000002,8.2686,-0.30055638775946925,-0.33966402739139745,0.6795218295218297,1.065786255808266,-0.0014511571068508422,0.05922385157579213,-0.13042899900232785,0.04328686720469532,0.01599028597944882,0.018516942502055756
8/29/2000,799.0,42.9953,30465.9201,10.3502,21.3584,12.863,8.2686,-0.3245996324494619,-0.35190338671567345,0.6685550935550936,1.048585636259884,-0.016138901636836622,0.04212914202381923,-0.14983476536682094,0.04328686720469532,0.01651409291816934,0.018569375337702372
8/30/2000,799.0,42.9953,30465.9201,10.3502,21.3584,12.633,8.2686,-0.3430577223088924,-0.3581383255330214,0.6566008316008316,1.0298361457569085,-0.017880743216978967,0.023495098436360662,-0.167128164556962,0.04328686720469532,0.0170788704738235,0.018659817272220044
8/31/2000,799.0,42.9953,30465.9201,10.3502,21.3584,12.404000000000002,8.2686,-0.34098395494633926,-0.3391775581766019,0.6446985446985448,1.0111681747778594,-0.018127127364837903,-0.0027335584499112997,-0.16768435885392186,0.04328686720469532,0.017515179487905173,0.01866835992909875
9/1/2000,799.0,42.9953,30465.9201,10.3502,21.3584,12.404000000000002,8.2686,-0.33640059918681775,-0.33864754975390543,0.6446985446985448,1.0111681747778594,0.0,0.003397508493771406,-0.1547529812606473,0.04328686720469532,0.017459002926483492,0.018601720316350812
9/4/2000,799.0,42.9953,30465.9201,10.3502,21.3584,12.404000000000002,8.2686,-0.33175304385303306,-0.3391337140394354,0.6446985446985448,1.0111681747778594,0.0,0.011168174777859363,-0.1514571076754685,0.04328686720469532,0.0173634201077918,0.018603480034892674
9/5/2000,799.0,42.9953,30465.9201,10.3502,21.3584,12.499,8.2686,-0.32324435540635665,-0.3070550652444637,0.6496361746361747,1.0189125295508275,0.0076588197355691445,-0.02336302547273006,-0.13936514494250496,0.030190468663558123,0.014494981168870873,0.018639059524354084
9/6/2000,799.0,42.9953,30465.9201,10.3502,21.3584,12.767000000000001,8.2686,-0.3183298627796465,-0.3101073201986224,0.6635654885654887,1.04075976196299,0.021441715337227052,-0.011918582153083945,-0.1220602393068353,0.030190468663558123,0.015144392721895536,0.01887149016052887
9/7/2000,799.0,42.9953,30465.9201,10.3502,21.3584,12.404000000000002,8.2686,-0.32225986231012993,-0.2856518413288164,0.6446985446985448,1.0111681747778594,-0.02843267799796345,-0.05124674927336703,-0.1591078570944341,0.030190468663558123,0.016032539780051695,0.019046323713119
9/8/2000,799.0,42.9953,30465.9201,10.3502,21.3584,12.136,8.2686,-0.32596500971952236,-0.2972507636767565,0.6307692307692307,1.0,-0.021605933569816438,-0.040859875128428036,-0.15669515669515666,0.030190468663558123,0.015191793053288449,0.018997765310147824
9/11/2000,799.0,42.9953,30465.9201,10.3502,21.3584,12.193,8.2686,-0.30855166156288993,-0.2608029942157196,0.6337318087318088,1.0046967699406724,0.004696769940672363,-0.06459532029152282,-0.16480580861702865,0.021441715337227052,0.01341616385356895,0.018896628640413995
9/12/2000,799.0,42.9953,30465.9201,10.3502,21.3584,12.251,8.2686,-0.2941345932242452,-0.25115233924867475,0.6367463617463618,1.009475939353988,0.004756827688017662,-0.05739786104485656,-0.14076308037592933,0.021441715337227052,0.013525141342118867,0.018731667787231714
9/13/2000,799.0,42.9953,30465.9201,10.3502,21.3584,12.174000000000001,8.2686,-0.3052559493237459,-0.24516349940078752,0.6327442827442828,1.0031311799604483,-0.006285201208064528,-0.0796098888636878,-0.13812389380530965,0.021441715337227052,0.012702206315307002,0.0187169954619227
9/14/2000,799.0,42.9953,30465.9201,10.3502,21.3584,11.982999999999999,8.2686,-0.2990758072063642,-0.22186476368741237,0.6228170478170478,1.0,-0.01568917364875988,-0.0992257385552131,-0.11361787114431554,0.021441715337227052,0.012752389322580888,0.01806479197264298
9/15/2000,799.0,42.9953,30465.9201,10.3502,21.3584,11.675999999999998,8.2686,-0.3250867052023123,-0.23988439306358378,0.6068607068607068,1.0,-0.025619627806058642,-0.11209125475285187,-0.1151864201273114,0.021441715337227052,0.01347051762260325,0.01810021230542887
9/18/2000,799.0,42.9953,30465.9201,10.3502,21.3584,11.523,8.2686,-0.35336700336700344,-0.2598765432098765,0.5989085239085239,1.0,-0.013103802672147835,-0.1263173857002048,-0.0982862508803507,0.021441715337227052,0.013418404318391973,0.017755436437794935
9/19/2000,799.0,42.9953,30465.9201,10.3502,21.3584,11.312999999999999,8.2686,-0.3631501913983337,-0.2672821436613376,0.5879937629937629,1.0,-0.018224420723769952,-0.13083896742470802,-0.1327711766960522,0.021441715337227052,0.013592844519540109,0.017645442356588503
9/20/2000,799.0,42.9953,30465.9201,10.3502,21.3584,11.120999999999999,8.2686,-0.3861566484517305,-0.27625986642380085,0.578014553014553,1.0,-0.01697162556351106,-0.1518456375838927,-0.14872933251684028,0.021441715337227052,0.013380864315689403,0.017737928266569853
9/21/2000,799.0,42.9953,30465.9201,10.3502,21.3584,11.255,8.2686,-0.36641522179689257,-0.2715604593560009,0.58497920997921,1.012049276144232,0.012049276144231902,-0.13021638330757335,-0.137217324645458,0.021441715337227052,0.01398712154752122,0.017830870243207737
9/22/2000,799.0,42.9953,30465.9201,10.3502,21.3584,11.37,8.2686,-0.35452739142776046,-0.26647743400510926,0.590956340956341,1.0223900728351767,0.010217681030652903,-0.12003714882749017,-0.16125700796695186,0.021441715337227052,0.014424113445537387,0.017106127280253212
9/25/2000,799.0,42.9953,30465.9201,10.3502,21.3584,11.198,8.2686,-0.3856703971911344,-0.28170945797673896,0.5820166320166321,1.0069238377843721,-0.01512752858399291,-0.14473382723592754,-0.18423544838639172,0.021441715337227052,0.013846642572333192,0.017064023118469634
9/26/2000,799.0,42.9953,30465.9201,10.3502,21.3584,11.064,8.2686,-0.40094211922681255,-0.292111105095024,0.5750519750519751,1.0,-0.011966422575459879,-0.1537402478201011,-0.1895099260127463,0.021441715337227052,0.013813677748376801,0.017098120750345978
9/27/2000,799.0,42.9953,30465.9201,10.3502,21.3584,11.542,8.2686,-0.36094346935385635,-0.2878024472620564,0.5998960498960499,1.0432031814895155,0.04320318148951552,-0.10269765995490943,-0.14141188722755338,0.04320318148951552,0.017583474750818468,0.017995525409456082
9/28/2000,799.0,42.9953,30465.9201,10.3502,21.3584,11.868,8.2686,-0.3332958822538059,-0.29032076849615185,0.6168399168399169,1.0726681127982647,0.028244671634032326,-0.06055568748515783,-0.14839265212399533,0.04320318148951552,0.01873712655504838,0.017730797652584854
9/29/2000,799.0,42.9953,30465.9201,10.3502,21.3584,12.155,8.2686,-0.29966582161788424,-0.28531919797188277,0.6317567567567568,1.0986080983369486,0.02418267610380842,-0.020074169622702587,-0.12779850746268662,0.04320318148951552,0.01927412684656459,0.018042456685684098
10/2/2000,799.0,42.9953,30465.9201,10.3502,21.3584,12.078,8.2686,-0.3003533568904593,-0.2814690378265653,0.6277546777546777,1.091648590021692,-0.0063348416289592535,-0.02628184456626914,-0.11275986189671638,0.04320318148951552,0.019310694825874556,0.017847462426133227
10/3/2000,799.0,42.9953,30465.9201,10.3502,21.3584,12.308,8.2686,-0.2729635536653081,-0.2672928111524603,0.6397089397089397,1.1124367317425885,0.019042887895347027,-0.007739438890680628,-0.07659989496586395,0.04320318148951552,0.019805265980694226,0.017866025455485074
10/4/2000,799.0,42.9953,30465.9201,10.3502,21.3584,12.595,8.2686,-0.2743143581470384,-0.2798455865406775,0.6546257796257797,1.1383767172812727,0.023318167045824012,0.007680614449155909,-0.04964913604466914,0.04320318148951552,0.020401152459122513,0.018118005471974067
10/5/2000,799.0,42.9953,30465.9201,10.3502,21.3584,12.404000000000002,8.2686,-0.2760170431331348,-0.2548298605031225,0.6446985446985448,1.1211135213304413,-0.01516474791583955,-0.02843267799796345,-0.06271724346380536,0.04320318148951552,0.020089381076654495,0.018209973076046132
10/6/2000,799.0,42.9953,30465.9201,10.3502,21.3584,12.385,8.2686,-0.2684151456081282,-0.2672928111524603,0.6437110187110188,1.1193962400578452,-0.0015317639471139621,-0.0015317639471139621,-0.10273129029921024,0.04320318148951552,0.019098045347010817,0.017322652660690278
10/9/2000,799.0,42.9953,30465.9201,10.3502,21.3584,12.460999999999999,8.2686,-0.2655310621242485,-0.2846870211010255,0.6476611226611226,1.1262653651482284,0.006136455389584183,0.02677982860909678,-0.08334559364425498,0.04320318148951552,0.01847076426444716,0.017261140215167153
10/10/2000,799.0,42.9953,30465.9201,10.3502,21.3584,12.404000000000002,8.2686,-0.27287648748461213,-0.28524532504836164,0.6446985446985448,1.1211135213304413,-0.004574271727790458,0.017305011071926613,-0.10993111366245678,0.04320318148951552,0.01849931362703024,0.016931201713792594
10/11/2000,799.0,42.9953,30465.9201,10.3502,21.3584,12.174000000000001,8.2686,-0.296300578034682,-0.291849710982659,0.6327442827442828,1.1003253796095447,-0.018542405675588514,-0.006285201208064528,-0.11436054124836303,0.04320318148951552,0.018954490032731235,0.016998137462395774
10/12/2000,799.0,42.9953,30465.9201,10.3502,21.3584,11.675999999999998,8.2686,-0.32796132151490753,-0.29929780131230577,0.6068607068607068,1.0553145336225596,-0.0409068506653526,-0.0409068506653526,-0.12401530497411672,0.04320318148951552,0.02092033004299019,0.017333386496508004
10/13/2000,799.0,42.9953,30465.9201,10.3502,21.3584,11.638,8.2686,-0.33724373576309796,-0.31759681093394077,0.6048856548856549,1.051879971077368,-0.003254539225762132,-0.028790786948176494,-0.12059845851594386,0.04320318148951552,0.020681549425160917,0.017321599840543194
10/16/2000,799.0,42.9953,30465.9201,10.3502,21.3584,11.83,8.2686,-0.33475791486250916,-0.3434178710003938,0.6148648648648649,1.069233550253073,0.016497680013748184,0.013189448441247142,-0.08648648648648638,0.04320318148951552,0.020230988444769237,0.017290052405989503
10/17/2000,799.0,42.9953,30465.9201,10.3502,21.3584,11.523,8.2686,-0.3600111080255485,-0.3600111080255485,0.5989085239085239,1.0414859002169197,-0.025950972104818337,0.0,-0.0982862508803507,0.04320318148951552,0.020857580937319813,0.017504986197854972
10/18/2000,799.0,42.9953,30465.9201,10.3502,21.3584,11.638,8.2686,-0.34415328261482114,-0.3624683009298395,0.6048856548856549,1.051879971077368,0.009980039920159722,0.028728012021568272,-0.10394210040036955,0.04320318148951552,0.02051670148865537,0.017418376765269094
10/19/2000,799.0,42.9953,30465.9201,10.3502,21.3584,11.81,8.2686,-0.3267202554016304,-0.36599965794424505,0.6138253638253639,1.0674258857556038,0.014779171678982683,0.06195486017444485,-0.08264719589871061,0.04320318148951552,0.020251747602242555,0.017514210718070196
10/20/2000,799.0,42.9953,30465.9201,10.3502,21.3584,11.485,8.2686,-0.35211823771647777,-0.36509279629943026,0.5969334719334719,1.038051337671728,-0.02751905165114321,0.02043536206130603,-0.1105173482032219,0.04320318148951552,0.021192597211690357,0.01781535699552692
10/23/2000,799.0,42.9953,30465.9201,10.3502,21.3584,11.542,8.2686,-0.35631030059673185,-0.36590262673582064,0.5998960498960499,1.0432031814895155,0.0049629952111449605,0.01512752858399291,-0.08185506324079228,0.04320318148951552,0.021111388688959044,0.017550060323749755
10/24/2000,799.0,42.9953,30465.9201,10.3502,21.3584,11.982999999999999,8.2686,-0.33033419023136257,-0.3742036436794457,0.6228170478170478,1.0830621836587129,0.03820828279327659,0.07010180389355236,-0.043884145854943046,0.04320318148951552,0.022260346168355337,0.018236470863746745
10/25/2000,799.0,42.9953,30465.9201,10.3502,21.3584,11.619000000000002,8.2686,-0.3375712656784491,-0.3692132269099202,0.603898128898129,1.0501626898047725,-0.030376366519235365,0.05016268980477245,-0.05865672851008652,0.04320318148951552,0.023239524177936323,0.018531485267331452
10/26/2000,799.0,42.9953,30465.9201,10.3502,21.3584,12.002,8.2686,-0.3157354618015963,-0.3419612314709236,0.6238045738045739,1.0847794649313087,0.03296324984938459,0.03985444463697796,-0.02762699505792754,0.03820828279327659,0.022438393953488383,0.019013250044739326
10/27/2000,799.0,42.9953,30465.9201,10.3502,21.3584,12.251,8.2686,-0.30451319897814355,-0.3262560317910871,0.6367463617463618,1.1072848879248012,0.020746542242959354,0.03227165487023931,-0.007453617434983406,0.03820828279327659,0.02205804398754121,0.019196732896956073
10/30/2000,799.0,42.9953,30465.9201,10.3502,21.3584,13.418,8.2686,-0.23990256613606753,-0.31144847901206596,0.6974012474012474,1.212762111352133,0.0952575299975511,0.10390785684903325,0.07879080237980385,0.0952575299975511,0.02977550893995791,0.02262245841176748
10/31/2000,799.0,42.9953,30465.9201,10.3502,21.3584,13.667,8.2686,-0.22824552487435767,-0.317973911570388,0.7103430353430354,1.2352675343456254,0.018557162021165752,0.13156151680741845,0.10556544248503474,0.0952575299975511,0.029791729024713193,0.022702788859140326
11/1/2000,799.0,42.9953,30465.9201,10.3502,21.3584,13.514000000000001,8.2686,-0.2479688369504729,-0.3150806900389538,0.7023908523908525,1.2214389009399855,-0.0111948489061241,0.09798505037374072,0.10165484633569744,0.0952575299975511,0.02987644543725887,0.022730838894425922
11/2/2000,799.0,42.9953,30465.9201,10.3502,21.3584,13.782,8.2686,-0.23065758624539467,-0.2969186111421235,0.7163201663201664,1.2456616052060738,0.019831286073701326,0.09424374751885667,0.07688701359587435,0.0952575299975511,0.029778353227308756,0.022226657105380347
11/3/2000,799.0,42.9953,30465.9201,10.3502,21.3584,13.915999999999999,8.2686,-0.2303948678243558,-0.3140139365114478,0.7232848232848232,1.2577729573391176,0.00972282687563486,0.12189616252821645,0.07700642365142008,0.0952575299975511,0.029441167838412365,0.02222732734788161
11/6/2000,799.0,42.9953,30465.9201,10.3502,21.3584,13.782,8.2686,-0.23065758624539467,-0.3086412861449147,0.7163201663201664,1.2456616052060738,-0.00962920379419363,0.11279773920064606,0.05415328132170716,0.0952575299975511,0.02959591766346258,0.02222952182368867
11/7/2000,799.0,42.9953,30465.9201,10.3502,21.3584,13.859000000000002,8.2686,-0.2287701725097383,-0.30656649972175853,0.7203222453222454,1.2526211135213305,0.005586997533014282,0.11219003290265661,0.09531336441950544,0.0952575299975511,0.02959557834602571,0.021823215964538883
11/8/2000,799.0,42.9953,30465.9201,10.3502,21.3584,14.117,8.2686,-0.2044967880085652,-0.3010255832300235,0.7337318087318089,1.2759399855386842,0.018616061764918035,0.13810061270557883,0.08300728807057922,0.0952575299975511,0.02963416917099816,0.02162713399160456
11/9/2000,799.0,42.9953,30465.9201,10.3502,21.3584,13.963,8.2686,-0.19279685512776035,-0.296219216094346,0.7257276507276508,1.2620209689081705,-0.010908833321527367,0.14695252176770146,0.07432484419481411,0.0952575299975511,0.029356017892536272,0.0216768022428563
11/10/2000,799.0,42.9953,30465.9201,10.3502,21.3584,13.692,8.2686,-0.21607694950188927,-0.331501202335967,0.7116424116424117,1.237527114967462,-0.019408436582396216,0.17266187050359738,0.03515536402812436,0.0952575299975511,0.027944549439041688,0.021729944416777083
11/13/2000,799.0,42.9953,30465.9201,10.3502,21.3584,13.712,8.2686,-0.21493186762853533,-0.3336768578953394,0.7126819126819127,1.2393347794649312,0.0014607069821792606,0.1782093143151744,0.03074494474930467,0.0952575299975511,0.027868651675185187,0.021720844100411935
11/14/2000,799.0,42.9953,30465.9201,10.3502,21.3584,13.866,8.2686,-0.1975230048035187,-0.31535389779501133,0.7206860706860707,1.2532537960954446,0.011231038506417823,0.17210481825866442,0.054448669201520916,0.0952575299975511,0.027813882481183962,0.021703549379563244
11/15/2000,799.0,42.9953,30465.9201,10.3502,21.3584,14.020999999999999,8.2686,-0.18058558821810544,-0.3265735491788908,0.7287422037422038,1.2672631959508314,0.011178422039521019,0.21678382365703364,0.06308287209037822,0.0952575299975511,0.02670941812922206,0.021739756623063336
11/16/2000,799.0,42.9953,30465.9201,10.3502,21.3584,13.499,8.2686,-0.22876078386562304,-0.3350854139290408,0.7016112266112267,1.2200831525668836,-0.037229869481491984,0.1599072005499227,0.03710817455439486,0.0952575299975511,0.028605607974793952,0.022203203195401183
11/17/2000,799.0,42.9953,30465.9201,10.3502,21.3584,13.383,8.2686,-0.22547601134324913,-0.3165113721858903,0.6955821205821205,1.2095986984815617,-0.00859322912808369,0.13319220999153258,0.02066809029896266,0.0952575299975511,0.028761198032090554,0.022218269419535457
11/20/2000,799.0,42.9953,30465.9201,10.3502,21.3584,12.959000000000001,8.2686,-0.26511285017579667,-0.34870137234887155,0.6735446985446987,1.1712762111352135,-0.03168198460733751,0.12834131475838073,0.0014683153013912431,0.0952575299975511,0.02901953575162954,0.022523651602048736
11/21/2000,799.0,42.9953,30465.9201,10.3502,21.3584,12.901,8.2686,-0.2843115499833574,-0.3597026517252857,0.6705301455301456,1.1660339840925524,-0.004475653985647199,0.11774389187315881,-0.0015478678120888212,0.0952575299975511,0.029111902626527603,0.02253057867204895
11/22/2000,799.0,42.9953,30465.9201,10.3502,21.3584,12.823,8.2686,-0.26583075689911817,-0.31392419557998397,0.6664760914760915,1.1589840925524224,-0.006046042942407515,0.07009930735208236,-0.020621706255250838,0.0952575299975511,0.028230002388392638,0.022481119122248146
11/23/2000,799.0,42.9953,30465.9201,10.3502,21.3584,12.823,8.2686,-0.24566150950055898,-0.31648920524736746,0.6664760914760915,1.1589840925524224,0.0,0.10362337550563727,-0.019198409056142007,0.0952575299975511,0.027159958318466064,0.022480441255764268
11/24/2000,799.0,42.9953,30465.9201,10.3502,21.3584,12.901,8.2686,-0.24436244362443627,-0.29701868447255897,0.6705301455301456,1.1660339840925524,0.006082819932933026,0.07490418263622711,0.002954209748892156,0.0952575299975511,0.02640133210642849,0.022398319499180766
11/27/2000,799.0,42.9953,30465.9201,10.3502,21.3584,12.823,8.2686,-0.2347218906660301,-0.26885891620911917,0.6664760914760915,1.1589840925524224,-0.006046042942407515,0.04669006611705173,0.015039974669516454,0.0952575299975511,0.026186260950487955,0.022292847427305147
11/28/2000,799.0,42.9953,30465.9201,10.3502,21.3584,12.669,8.2686,-0.25716798592788037,-0.21325124596892409,0.6584719334719336,1.145065075921909,-0.012009670123995897,-0.05582053957370692,0.021364076104482432,0.019831286073701326,0.015445267595622064,0.022223718425759813
11/29/2000,799.0,42.9953,30465.9201,10.3502,21.3584,12.823,8.2686,-0.2530436302207725,-0.20387953631968325,0.6664760914760915,1.1589840925524224,0.012155655537137822,-0.061754591351430466,0.03377942599161554,0.019831286073701326,0.015064960919681332,0.02227136520171092
11/30/2000,799.0,42.9953,30465.9201,10.3502,21.3584,12.880999999999998,8.2686,-0.2695361233979813,-0.23363955994102292,0.6694906444906444,1.164226319595083,0.004523122514232147,-0.04684031374870523,0.03845533698806802,0.019831286073701326,0.015023781610390512,0.022276140677570475
12/1/2000,799.0,42.9953,30465.9201,10.3502,21.3584,13.306,8.2686,-0.24462106159523134,-0.21759863752483677,0.6915800415800416,1.2026391901663052,0.03299433273814145,-0.03453780293135977,0.06456516521321687,0.03299433273814145,0.01621510256440259,0.022627161815713566
12/4/2000,799.0,42.9953,30465.9201,10.3502,21.3584,13.77,8.2686,-0.22242927325088935,-0.2141848777457791,0.7156964656964657,1.244577006507592,0.034871486547422226,-0.010491520551882627,0.07856191744340868,0.034871486547422226,0.017927279891687388,0.022882359047131595
12/5/2000,799.0,42.9953,30465.9201,10.3502,21.3584,14.020999999999999,8.2686,-0.2082556891975832,-0.2217516517025241,0.7287422037422038,1.2672631959508314,0.018228031953522184,0.017341459875199527,0.1303611738148982,0.034871486547422226,0.018234275176437484,0.02265337350988257
12/6/2000,799.0,42.9953,30465.9201,10.3502,21.3584,13.654000000000002,8.2686,-0.21654808354372268,-0.20478540280009172,0.7096673596673598,1.2340925524222706,-0.026175023179516255,-0.014791832022512441,0.12508239947264355,0.034871486547422226,0.019128189687413095,0.02273795912182006
12/7/2000,799.0,42.9953,30465.9201,10.3502,21.3584,12.978,8.2686,-0.24973985431841828,-0.18389409180252037,0.6745322245322246,1.1729934924078091,-0.04950930130364739,-0.0806828646312957,0.06438120232920519,0.034871486547422226,0.02136408319248923,0.02364643276078201
12/8/2000,799.0,42.9953,30465.9201,10.3502,21.3584,13.48,8.2686,-0.22323383657946294,-0.1954016365103146,0.7006237006237007,1.2183658712942878,0.03868084450608733,-0.034591420181909194,0.10031834135988915,0.03868084450608733,0.023198470493778694,0.024109023721660138
12/11/2000,799.0,42.9953,30465.9201,10.3502,21.3584,13.287,8.2686,-0.25206867435969604,-0.22927103855896425,0.6905925155925157,1.2009219088937093,-0.014317507418397546,-0.02957931638913225,0.09142434696895019,0.03868084450608733,0.023027031413869026,0.02417362805612004
12/12/2000,799.0,42.9953,30465.9201,10.3502,21.3584,13.132,8.2686,-0.2607936954686181,-0.22814522938361947,0.6825363825363826,1.1869125090383223,-0.011665537743659304,-0.04229871645274208,0.09588583827088382,0.03868084450608733,0.023129828884388342,0.024132295695182843
12/13/2000,799.0,42.9953,30465.9201,10.3502,21.3584,12.785,8.2686,-0.28555462419670297,-0.22514668901927914,0.6645010395010396,1.1555495300072307,-0.026424002436795546,-0.07796047886917634,0.09498115793079842,0.03868084450608733,0.023525283562246226,0.024147211263729346
12/14/2000,799.0,42.9953,30465.9201,10.3502,21.3584,13.036,8.2686,-0.2922141383429254,-0.23873384732327074,0.6775467775467776,1.17823571945047,0.019632381697301415,-0.07025176520932885,0.13130261216697048,0.03868084450608733,0.023860641676664508,0.024175182041051485
12/15/2000,799.0,42.9953,30465.9201,10.3502,21.3584,12.804,8.2686,-0.31386313702373925,-0.2766196881196076,0.6654885654885656,1.1572668112798266,-0.017796870205584514,-0.05148529520705236,0.13179527976664018,0.03868084450608733,0.022829035846315633,0.024169402691844605
12/18/2000,799.0,42.9953,30465.9201,10.3502,21.3584,13.036,8.2686,-0.29932813759742005,-0.2806772373018006,0.6775467775467776,1.17823571945047,0.01811933770696661,-0.025928416647986174,0.17219674489704184,0.03868084450608733,0.0232000123712345,0.024123564273141603
12/19/2000,799.0,42.9953,30465.9201,10.3502,21.3584,13.48,8.2686,-0.2791058345366063,-0.3069682870741751,0.7006237006237007,1.2183658712942878,0.03405952746241181,0.04020371942279488,0.1976899155930698,0.03868084450608733,0.023287241019373163,0.02441715517767334
12/20/2000,799.0,42.9953,30465.9201,10.3502,21.3584,13.113,8.2686,-0.268778230078626,-0.2806000111526237,0.6815488565488566,1.1851952277657267,-0.0272255192878339,0.01643283466397949,0.15329815303430072,0.03868084450608733,0.024124372822808896,0.024696629534471017
12/21/2000,799.0,42.9953,30465.9201,10.3502,21.3584,13.440999999999999,8.2686,-0.22378147378147384,-0.25947100947100943,0.6985966735966735,1.2148409255242225,0.02501334553496526,0.04819465023785363,0.20030362564743687,0.03868084450608733,0.024614442252911293,0.024750609573284767
12/22/2000,799.0,42.9953,30465.9201,10.3502,21.3584,13.982000000000001,8.2686,-0.22192543127434605,-0.28642181413466883,0.7267151767151768,1.2637382501807666,0.040249981400193535,0.09038446541370981,0.2637382501807666,0.040249981400193535,0.025938803242087728,0.025106268603105303
12/25/2000,799.0,42.9953,30465.9201,10.3502,21.3584,13.982000000000001,8.2686,-0.2574220617133145,-0.31483350151362266,0.7267151767151768,1.2637382501807666,0.0,0.0837919541120844,0.2114018367700572,0.040249981400193535,0.025953612222046264,0.02460399912455648
12/26/2000,799.0,42.9953,30465.9201,10.3502,21.3584,13.924000000000001,8.2686,-0.27350516539705727,-0.3309506417614526,0.7237006237006238,1.2584960231381057,-0.004148190530682272,0.08586134289947767,0.1732389619143917,0.040249981400193535,0.025919578706417618,0.02441294698774464
12/27/2000,799.0,42.9953,30465.9201,10.3502,21.3584,14.465,8.2686,-0.22097156398104256,-0.3176971133132269,0.7518191268191269,1.3073933477946493,0.03885377765010034,0.14176335938116646,0.19004524886877827,0.040249981400193535,0.026689239272591293,0.024688344593449745
12/28/2000,799.0,42.9953,30465.9201,10.3502,21.3584,14.619000000000002,8.2686,-0.20948466987508774,-0.30660249824257824,0.759823284823285,1.3213123644251628,0.010646387832699666,0.1400608281993294,0.2103825136612023,0.040249981400193535,0.02667576409436677,0.02467679408119613
12/29/2000,799.0,42.9953,30465.9201,10.3502,21.3584,14.31,8.2686,-0.2377350450114526,-0.31385500452777937,0.7437629937629938,1.2933839479392626,-0.021136876667350757,0.11093859172424514,0.16265843353916165,0.040249981400193535,0.027354725872336984,0.024783176848454772
1/1/2001,799.0,42.9953,30465.9201,10.3502,21.3584,14.31,8.2686,-0.2562370062370062,-0.3084199584199584,0.7599978756173987,1.2933839479392626,0.0,0.07545468209830153,0.1361651448987693,0.040249981400193535,0.02662713078889355,0.024643921856526724
1/2/2001,799.0,42.9953,30465.9201,10.3502,21.3584,14.04,8.2686,-0.2543417069414202,-0.26868128950023906,0.7456582930585798,1.2689804772234272,-0.018867924528301994,0.019607843137254832,0.13189293776201194,0.040249981400193535,0.0260689077410444,0.024690679714904885
1/3/2001,799.0,42.9953,30465.9201,10.3502,21.3584,14.059000000000001,8.2686,-0.2533326252057996,-0.25535078867704086,0.764865894129808,1.2706977584960233,0.0013532763532764225,0.002710220383710382,0.13516350423899892,0.040249981400193535,0.02577780341894921,0.024686199694556155
1/4/2001,799.0,42.9953,30465.9201,10.3502,21.3584,15.064,8.2686,-0.18045808171481426,-0.25716772754474726,0.8356817929657162,1.361532899493854,0.07148445835407924,0.1032664420682583,0.20889174223577567,0.07148445835407924,0.02930336859280786,0.02617741285601156
1/5/2001,799.0,42.9953,30465.9201,10.3502,21.3584,14.832,8.2686,-0.177188505492067,-0.2800399423055586,0.8464787124757447,1.3405639913232106,-0.015400955921402004,0.14285714285714302,0.19574330861012568,0.07148445835407924,0.02697849355831396,0.0262656489021318
1/8/2001,799.0,42.9953,30465.9201,10.3502,21.3584,15.005999999999998,8.2686,-0.13250086715227194,-0.22071915828419464,0.856409085720808,1.356290672451193,0.01173139158576042,0.11320474777448064,0.23262690980778689,0.07148445835407924,0.026005567184993042,0.02613852248853492
1/9/2001,799.0,42.9953,30465.9201,10.3502,21.3584,14.465,8.2686,-0.17446638511585444,-0.24169615340714534,0.8326617545475478,1.3073933477946493,-0.03605224576835919,0.08865808685180987,0.23886605001712935,0.07148445835407924,0.0272345167624704,0.02601187823169511
1/10/2001,799.0,42.9953,30465.9201,10.3502,21.3584,14.290999999999999,8.2686,-0.17559850014421707,-0.24245745601384483,0.8226456366566889,1.2916666666666665,-0.012029035603180138,0.08825769113615589,0.22796013060663323,0.07148445835407924,0.027245352239235777,0.026073317312120512
1/11/2001,799.0,42.9953,30465.9201,10.3502,21.3584,13.866,8.2686,-0.17976929902395744,-0.24371487725524998,0.7981809808887865,1.2532537960954446,-0.02973899657126855,0.08455220962064924,0.17210481825866442,0.07148445835407924,0.027441671236357046,0.02635348602883481
1/12/2001,799.0,42.9953,30465.9201,10.3502,21.3584,13.866,8.2686,-0.19228752839750696,-0.2406361041533175,0.7981809808887865,1.2532537960954446,0.0,0.06366983737342746,0.20333246550377515,0.07148445835407924,0.027224122936188713,0.026097454998449274
1/15/2001,799.0,42.9953,30465.9201,10.3502,21.3584,13.866,8.2686,-0.20181901911121347,-0.2629518765830071,0.8045256744995648,1.2532537960954446,0.0,0.08294283036551064,0.19144182849286828,0.07148445835407924,0.026808674839444595,0.026086369284286856
1/16/2001,799.0,42.9953,30465.9201,10.3502,21.3584,14.232999999999999,8.2686,-0.15994806114619609,-0.23059670660449738,0.8258195532346968,1.2864244396240057,0.02646761863551128,0.09182264498312365,0.2051651143099067,0.07148445835407924,0.02708680981735096,0.026211935933861938
1/17/2001,799.0,42.9953,30465.9201,10.3502,21.3584,13.886,8.2686,-0.15622531445585475,-0.18089566749711372,0.8056861038584276,1.2550614605929138,-0.02437996206000137,0.03011869436201775,0.20905528950805397,0.07148445835407924,0.026903340455210874,0.02615533001269284
1/18/2001,799.0,42.9953,30465.9201,10.3502,21.3584,13.905,8.2686,-0.17014800668417285,-0.2174146574361423,0.8067885117493473,1.2567787418655096,0.0013682846031974893,0.06039807824296495,0.20473054929821521,0.07148445835407924,0.026074157580686097,0.02615567378168703
1/19/2001,799.0,42.9953,30465.9201,10.3502,21.3584,13.577,8.2686,-0.17500151911040895,-0.18326547973506724,0.7877574702639977,1.2271330441070136,-0.02358863718087012,0.01011829476973447,0.13302178085621308,0.07148445835407924,0.026189973298912733,0.02598331457553602
1/22/2001,799.0,42.9953,30465.9201,10.3502,21.3584,13.712,8.2686,-0.1620630652652164,-0.145563431923735,0.7955903684363215,1.2393347794649312,0.009943286440303511,-0.019310542125590135,0.18013598416386944,0.07148445835407924,0.024700091538414307,0.02565974120901597
1/23/2001,799.0,42.9953,30465.9201,10.3502,21.3584,13.789000000000001,8.2686,-0.14661468003465772,-0.13467013244213388,0.8000580214679432,1.2462942877801881,0.0056155192532090226,-0.01380346159347734,0.148891851358107,0.07148445835407924,0.024737764453327066,0.025373561398900856
1/24/2001,799.0,42.9953,30465.9201,10.3502,21.3584,13.943,8.2686,-0.10821874000639586,-0.10943396226415081,0.8089933275311866,1.2602133044107013,0.011168322575966227,0.001364550416546928,0.13811117459799194,0.07148445835407924,0.024846514335806157,0.025291133511392987
1/25/2001,799.0,42.9953,30465.9201,10.3502,21.3584,14.195,8.2686,-0.08442982456140358,-0.06701496388028905,0.8236147374528576,1.2829898770788142,0.01807358531162606,-0.018665744901486314,0.05790728871664941,0.07148445835407924,0.023620098362017793,0.022425852456621473
1/26/2001,799.0,42.9953,30465.9201,10.3502,21.3584,13.963,8.2686,-0.08397297119989511,-0.04093682345994876,0.8101537568900493,1.2620209689081705,-0.016343783022190972,-0.0448731103358645,0.02165800834125986,0.07148445835407924,0.023709669738891735,0.022419735253609015
1/29/2001,799.0,42.9953,30465.9201,10.3502,21.3584,14.044,8.2686,-0.06950241833962756,-0.051878354203935606,0.8148534957934437,1.2693420101229211,0.005801045620568823,-0.018588399720475213,0.03921858813082735,0.07148445835407924,0.023343920679963163,0.022377906356631127
1/30/2001,799.0,42.9953,30465.9201,10.3502,21.3584,14.152000000000001,8.2686,-0.024941435855036498,-0.014055394791236075,0.8211198143313027,1.2791033984092552,0.007690116775847411,-0.011041229909154349,0.02684661152227541,0.07148445835407924,0.023414637163670614,0.022263843873233265
1/31/2001,799.0,42.9953,30465.9201,10.3502,21.3584,14.269,8.2686,-0.05696913621042876,-0.07210362831273542,0.8279083260806499,1.2896782357194505,0.008267382702091597,0.016310541310541327,0.02536648462201785,0.07148445835407924,0.023083473736085856,0.022255044712352404
2/1/2001,799.0,42.9953,30465.9201,10.3502,21.3584,14.477,8.2686,-0.07736919253075003,-0.10400866738894898,0.8399767914128228,1.3084779464931309,0.014577055154530782,0.029731844370154192,0.05042809461616593,0.07148445835407924,0.023272599083676883,0.022283828876528432
2/2/2001,799.0,42.9953,30465.9201,10.3502,21.3584,14.732999999999999,8.2686,-0.06664554957237889,-0.04567627494456761,0.8548302872062663,1.3316160520607374,0.01768322166194647,-0.02197291556027625,0.06306371311061376,0.02646761863551128,0.01742796026306541,0.02237569997164271
2/5/2001,799.0,42.9953,30465.9201,10.3502,21.3584,15.218,8.2686,-0.0375055341218139,-0.06191891720953757,0.8829706991586888,1.3754519161243672,0.03291929681667005,0.026024811218986033,0.0779910745909187,0.03291929681667005,0.01857161221024095,0.022626256575735786
2/6/2001,799.0,42.9953,30465.9201,10.3502,21.3584,15.37,8.2686,-0.0005202236961894258,-0.02419040187280541,0.8917899622860458,1.3891901663051336,0.009988171901695209,0.024256963881114313,0.10076631096469235,0.03291929681667005,0.01852691600289606,0.02259540856676689
2/7/2001,799.0,42.9953,30465.9201,10.3502,21.3584,15.128,8.2686,-0.016256990505917557,-0.05937052932761089,0.8777487670438062,1.3673174258857557,-0.015744957709824314,0.04583477359142751,0.10487876132047913,0.03291929681667005,0.01694164000783051,0.022544669826647643
2/8/2001,799.0,42.9953,30465.9201,10.3502,21.3584,15.354000000000001,8.2686,-0.031232254400908488,-0.09830273203356688,0.8908616187989556,1.3877440347071583,0.0149391856160761,0.07438247848296142,0.11974912485414246,0.03291929681667005,0.016825015740462943,0.022604952228099773
2/9/2001,799.0,42.9953,30465.9201,10.3502,21.3584,15.342,8.2686,-0.04553938036580818,-0.13736468831653614,0.890165361183638,1.3866594360086768,-0.0007815552950372062,0.10644742535698848,0.10644742535698848,0.03291929681667005,0.015053020388544723,0.022576880979389525
2/12/2001,799.0,42.9953,30465.9201,10.3502,21.3584,15.536,8.2686,0.026630542522963152,-0.08372431110817413,0.9014215259646069,1.4041937816341286,0.012645026724025454,0.12043848261935675,0.10805220740318089,0.03291929681667005,0.015098527505275164,0.02258740182456679
2/13/2001,799.0,42.9953,30465.9201,10.3502,21.3584,15.509,8.2686,0.04960747157552792,-0.06158635625338382,0.8998549463301422,1.4017534345625453,-0.0017378990731204969,0.11849127361892409,0.1488999185124824,0.03291929681667005,0.015135121057811523,0.02203200091693862
2/14/2001,799.0,42.9953,30465.9201,10.3502,21.3584,15.558,8.2686,0.05292365998917159,-0.03674878180833796,0.9026979982593559,1.4061822125813448,0.003159455799858213,0.0930935150706107,0.1625196144362251,0.03291929681667005,0.014351552473708479,0.021986757067227768
2/15/2001,799.0,42.9953,30465.9201,10.3502,21.3584,15.890999999999998,8.2686,0.06866173503698714,-0.06617350369872221,0.9220191470844211,1.436279826464208,0.021403779406093282,0.14439003312689036,0.2262520256192604,0.03291929681667005,0.013201000206436685,0.021665470217456725
2/16/2001,799.0,42.9953,30465.9201,10.3502,21.3584,15.455,8.2686,0.06219931271477663,-0.04432989690721656,0.8967217870612126,1.3968727404193781,-0.027436913976464528,0.1114706939949659,0.19796914967831958,0.03291929681667005,0.015120671215962412,0.0219919990447449
2/19/2001,799.0,42.9953,30465.9201,10.3502,21.3584,15.455,8.2686,0.08899379932356255,-0.04333427282976321,0.8967217870612126,1.3968727404193781,0.0,0.13832216248066587,0.20525618030102155,0.03291929681667005,0.013686867882266439,0.02196458422956035
2/20/2001,799.0,42.9953,30465.9201,10.3502,21.3584,15.577,8.2686,0.0542095289658906,-0.07200866269626427,0.9038004061502757,1.4078994938539406,0.00789388547395653,0.13601225204200706,0.2147703345550962,0.03291929681667005,0.0136667152561493,0.02196852902486753
2/21/2001,799.0,42.9953,30465.9201,10.3502,21.3584,15.405,8.2686,0.06564748201438841,-0.04614001106806853,0.8938207136640557,1.392353579175705,-0.011041920780638148,0.11719486547247793,0.19409348112549418,0.03291929681667005,0.014175057443307361,0.022039734481214934
2/22/2001,799.0,42.9953,30465.9201,10.3502,21.3584,15.561,8.2686,0.11118251928020562,-0.004355898314767348,0.9028720626631854,1.4064533622559652,0.010126582278481067,0.11604389299289974,0.21352257662013563,0.03291929681667005,0.01415562237469065,0.022026175678411513
2/23/2001,799.0,42.9953,30465.9201,10.3502,21.3584,15.424000000000001,8.2686,0.11188004613610159,0.023284313725490335,0.8949231215549754,1.394070860448301,-0.008804061435640276,0.08657978161324409,0.21745994158970716,0.03291929681667005,0.014161552107364537,0.021993884741337913
2/26/2001,799.0,42.9953,30465.9201,10.3502,21.3584,15.944,8.2686,0.1604075691411937,0.01622998544395915,0.9250942848854077,1.441070137382502,0.03371369294605797,0.14187495523884563,0.2433907821882555,0.03371369294605797,0.014756300396996025,0.022298459515003383
2/27/2001,799.0,42.9953,30465.9201,10.3502,21.3584,15.842,8.2686,0.12674253200568986,-0.001137980085348489,0.9191760951552075,1.4318510484454086,-0.006397390868038144,0.1280262033608659,0.22987345702973383,0.03371369294605797,0.01502048016621517,0.022334429959348527
2/28/2001,799.0,42.9953,30465.9201,10.3502,21.3584,15.923,8.2686,0.1509215757137694,0.022912902059992746,0.9238758340586017,1.439172089660159,0.005112990783991966,0.12514132278123236,0.1966781902900947,0.03371369294605797,0.015015307933738616,0.02201520031963824
3/1/2001,799.0,42.9953,30465.9201,10.3502,21.3584,15.947000000000001,8.2686,0.15115859380639574,0.030029596477297416,0.9252683492892371,1.4413412870571223,0.0015072536582303453,0.11759758917933993,0.158097312999274,0.03371369294605797,0.01503081230973348,0.02163641054931509
3/2/2001,799.0,42.9953,30465.9201,10.3502,21.3584,16.320999999999998,8.2686,0.07985973269816049,-0.04214635437342862,0.9469683782999709,1.4751446131597974,0.023452687025772745,0.12737445603370845,0.16403965480350902,0.03371369294605797,0.015421027246211352,0.021707324740821956
3/5/2001,799.0,42.9953,30465.9201,10.3502,21.3584,16.639,8.2686,0.04614900974536318,-0.07368751964790954,0.9654192051058892,1.503886478669559,0.01948410023895608,0.12936944274757356,0.2186172550168446,0.03371369294605797,0.01549502102551814,0.021490739901608505
3/6/2001,799.0,42.9953,30465.9201,10.3502,21.3584,16.639,8.2686,0.1036015122371825,0.009351993102076017,0.9654192051058892,1.503886478669559,0.0,0.09337626494940188,0.2820927723840345,0.03371369294605797,0.014241926346912445,0.020403641101633695
3/7/2001,799.0,42.9953,30465.9201,10.3502,21.3584,17.11,8.2686,0.11262843022499669,-0.0005202236961894258,0.9927473165071077,1.5464569775849601,0.028306989602740584,0.1132075471698113,0.269287833827893,0.03371369294605797,0.01513701959305551,0.020160928350217305
3/8/2001,799.0,42.9953,30465.9201,10.3502,21.3584,17.287,8.2686,0.0998918368645414,-0.03747534516765294,1.0,1.5624548083875631,0.010344827586206806,0.1427154944473823,0.3010461353202376,0.03371369294605797,0.014381340164182988,0.020038775143040262
